255.00, 255.00, 66.00, -0.05, 0.23, 0.00, 10.38, 3.95, 13.14, 39.65, 12.93, 0.01, 0.10, 0.01, -17.03, 3.69, 19.23, -0.01, -0.01, -0.00, -9.95, 2.72, 4.97, -0.02, -0.01, -0.01
-98.00, 255.00, 0.00, 0.22, 0.25, -0.18, 10.50, 3.96, -8.23, 42.85, 13.87, 0.00, 0.09, 0.00, -15.35, 3.81, 18.80, -0.00, -0.02, -0.00, -10.10, 2.97, 5.15, -0.01, -0.02, -0.01
255.00, 255.00, -248.00, 0.10, 0.19, 0.21, 10.25, 3.95, 0.06, 37.87, 4.98, -0.00, 0.09, 0.01, -16.20, 3.05, 19.18, 0.00, -0.01, 0.00, -10.29, 2.89, 5.34, -0.01, -0.02, -0.00
167.00, 255.00, 255.00, -0.17, -0.18, -0.15, 10.25, 3.93, 16.76, 42.47, 13.67, -0.00, 0.10, 0.01, -16.54, 2.85, 18.09, 0.00, -0.01, 0.00, -10.48, 2.79, 5.50, -0.01, -0.01, -0.00
-241.00, -249.00, -223.00, -0.20, -0.22, -0.09, 10.25, 3.94, -8.10, 19.01, -22.00, 0.00, 0.09, 0.01, -16.28, 2.86, 19.52, -0.00, -0.01, -0.00, -10.65, 2.70, 5.68, -0.01, -0.01, -0.01
-255.00, -255.00, -155.00, 0.09, 0.14, -0.23, 10.63, 3.94, -4.82, 19.37, -20.83, 0.00, 0.10, 0.01, -15.35, 3.13, 18.95, -0.00, -0.01, 0.00, -10.77, 2.73, 5.86, -0.01, -0.01, -0.00
155.00, 213.00, -255.00, 0.16, 0.06, 0.13, 10.25, 3.95, -5.64, 36.23, 3.65, -0.00, 0.09, 0.01, -17.40, 2.69, 18.11, 0.00, -0.01, -0.00, -10.99, 2.64, 6.01, -0.01, -0.01, -0.01
231.00, 113.00, 202.00, 0.21, -0.18, -0.11, 10.25, 3.95, 23.14, 32.37, 7.69, -0.00, 0.10, 0.01, -16.70, 1.76, 19.07, -0.00, -0.01, -0.00, -11.16, 2.26, 6.18, -0.01, -0.01, -0.00
255.00, -248.00, -179.00, -0.13, 0.03, 0.18, 10.13, 3.95, 22.65, 13.05, -20.71, 0.00, 0.09, 0.01, -15.80, 3.32, 19.28, -0.00, -0.01, 0.00, -11.28, 2.50, 6.36, -0.01, -0.01, -0.00
-202.00, 66.00, 248.00, -0.18, -0.06, -0.12, 10.38, 3.95, 3.48, 36.50, 6.91, -0.00, 0.09, 0.01, -15.30, 2.23, 20.40, 0.00, -0.01, -0.00, -11.36, 2.29, 6.56, -0.00, -0.01, -0.01
-248.00, -113.00, -191.00, -0.23, -0.14, 0.06, 10.25, 3.96, -11.68, 25.86, -12.95, 0.00, 0.10, 0.01, -15.59, 3.40, 17.61, -0.00, -0.01, 0.00, -11.48, 2.57, 6.71, -0.01, -0.01, -0.00
-255.00, -212.00, 113.00, -0.16, -0.03, 0.07, 10.13, 3.95, 5.36, 22.71, -13.07, 0.00, 0.10, 0.01, -15.48, 2.88, 18.80, -0.00, -0.01, -0.00, -11.57, 2.57, 6.88, -0.01, -0.01, -0.00
-231.00, -66.00, 127.00, -0.10, 0.23, -0.10, 10.00, 3.96, 2.50, 28.38, -0.86, -0.00, 0.10, 0.01, -14.69, 2.12, 20.46, 0.00, -0.00, -0.00, -11.61, 2.30, 7.08, -0.00, -0.00, -0.00
-167.00, 255.00, -167.00, 0.23, 0.01, 0.14, 10.00, 3.96, -21.70, 42.22, 8.56, -0.00, 0.10, 0.03, -17.34, 2.70, 18.39, 0.00, -0.01, 0.02, -11.80, 2.36, 7.22, -0.01, -0.01, 0.02
255.00, 32.00, 212.00, 0.07, -0.06, 0.13, 9.88, 3.96, 29.17, 29.68, 4.30, 0.01, 0.10, 0.04, -15.68, 3.34, 20.26, -0.01, -0.01, 0.03, -11.88, 2.57, 7.40, -0.01, -0.01, 0.03
127.00, -113.00, 202.00, -0.23, 0.13, -0.11, 10.00, 3.97, 29.93, 22.65, -1.62, -0.00, 0.09, 0.01, -13.17, 2.43, 20.70, 0.00, -0.01, -0.00, -11.83, 2.39, 7.61, -0.00, -0.01, -0.00
-255.00, 201.00, -179.00, 0.05, 0.21, -0.24, 10.50, 3.96, -25.17, 41.00, 5.66, -0.00, 0.10, -0.02, -16.91, 2.38, 19.57, 0.00, -0.01, -0.03, -11.98, 2.30, 7.77, -0.00, -0.01, -0.03
98.00, 255.00, -255.00, -0.24, -0.11, -0.12, 10.50, 3.95, -9.88, 39.14, 7.28, -0.00, 0.09, -0.01, -17.02, 2.86, 19.45, 0.00, -0.01, -0.02, -12.13, 2.40, 7.92, -0.00, -0.01, -0.03
-255.00, -179.00, -191.00, 0.10, -0.01, 0.23, 10.38, 3.95, -10.82, 21.44, -15.05, 0.01, 0.10, 0.02, -16.96, 1.86, 20.12, -0.01, -0.01, 0.01, -12.26, 2.13, 8.08, -0.01, -0.01, 0.01
167.00, -32.00, 255.00, -0.03, 0.06, 0.16, 10.00, 3.96, 27.87, 27.10, 1.40, -0.00, 0.10, 0.03, -16.41, 2.26, 19.33, 0.00, -0.01, 0.02, -12.37, 2.08, 8.24, -0.00, -0.01, 0.02
-66.00, 113.00, 231.00, -0.17, 0.04, 0.02, 10.50, 3.97, 9.97, 38.04, 10.46, 0.00, 0.10, 0.01, -14.20, 3.90, 19.96, -0.00, -0.01, 0.00, -12.36, 2.57, 8.41, -0.00, -0.01, 0.00
-239.00, 82.00, 49.00, -0.21, 0.23, -0.16, 10.25, 3.98, -8.26, 35.88, 5.54, 0.00, 0.10, 0.00, -15.49, 2.82, 19.50, -0.00, -0.00, -0.01, -12.42, 2.55, 8.57, -0.01, -0.01, -0.01
-255.00, 255.00, -230.00, 0.19, 0.14, 0.14, 10.50, 3.95, -27.43, 43.39, 5.07, 0.00, 0.10, 0.01, -15.20, 1.88, 18.68, -0.00, -0.01, -0.00, -12.48, 2.24, 8.72, -0.01, -0.01, -0.01
255.00, 212.00, 212.00, 0.11, 0.19, 0.14, 11.00, 3.94, 22.22, 39.49, 10.70, -0.01, 0.10, 0.01, -15.60, 3.75, 18.18, 0.01, -0.01, -0.00, -12.55, 2.66, 8.85, 0.01, -0.01, -0.00
180.00, 255.00, 213.00, -0.04, -0.13, 0.22, 10.50, 3.94, 14.66, 41.46, 13.39, 0.00, 0.11, 0.01, -17.63, 2.70, 17.79, -0.00, 0.00, 0.00, -12.72, 2.62, 8.95, -0.01, 0.00, 0.00
-83.00, -202.00, 255.00, 0.13, -0.14, -0.15, 10.38, 3.95, 20.99, 21.67, -10.07, -0.00, 0.10, 0.01, -15.61, 2.33, 18.43, 0.00, -0.01, -0.00, -12.78, 2.45, 9.09, -0.00, -0.01, -0.00
202.00, -212.00, -222.00, 0.13, -0.06, -0.21, 10.38, 3.95, 14.45, 15.26, -20.42, 0.00, 0.10, 0.01, -17.81, 3.33, 17.17, -0.00, -0.01, 0.00, -12.95, 2.69, 9.18, -0.01, -0.01, -0.00
202.00, -113.00, -255.00, -0.01, -0.24, 0.00, 10.38, 3.95, 10.06, 20.01, -14.21, -0.00, 0.09, 0.01, -16.97, 3.43, 17.70, 0.00, -0.01, -0.00, -13.08, 2.87, 9.29, -0.00, -0.01, -0.00
-32.00, -255.00, 0.00, -0.19, 0.09, -0.22, 10.13, 3.97, 13.93, 15.80, -15.02, -0.00, 0.09, 0.01, -16.54, 3.07, 18.77, 0.00, -0.01, -0.00, -13.17, 2.86, 9.42, -0.00, -0.01, -0.00
-255.00, 154.00, -255.00, -0.04, 0.13, -0.22, 10.13, 3.96, -25.72, 37.11, 1.02, -0.00, 0.10, 0.01, -15.83, 0.88, 20.03, 0.00, -0.01, -0.00, -13.20, 2.11, 9.58, -0.00, -0.01, -0.01
-82.00, 202.00, -255.00, -0.14, -0.19, -0.14, 10.63, 3.95, -18.44, 37.23, 5.33, -0.00, 0.10, 0.01, -17.03, 1.82, 19.70, 0.00, -0.01, -0.00, -13.30, 1.94, 9.72, -0.00, -0.01, -0.01
-212.00, -255.00, -212.00, -0.24, 0.22, 0.18, 10.38, 3.95, -5.54, 17.51, -21.21, 0.00, 0.10, 0.01, -16.07, 2.34, 19.90, -0.00, -0.01, -0.00, -13.35, 1.98, 9.87, -0.01, -0.01, -0.00
-255.00, 255.00, 248.00, 0.11, -0.14, 0.23, 10.50, 3.93, -6.65, 47.43, 12.10, 0.00, 0.09, 0.01, -15.49, 2.10, 18.28, -0.00, -0.01, -0.00, -13.39, 1.95, 9.99, -0.00, -0.01, -0.00
180.00, -213.00, 255.00, 0.00, 0.07, -0.16, 10.25, 3.94, 36.96, 19.42, -10.06, 0.00, 0.10, 0.01, -14.87, 3.19, 20.05, -0.00, -0.01, -0.00, -13.37, 2.26, 10.15, -0.00, -0.01, -0.00
0.00, 128.00, -232.00, 0.12, -0.05, -0.24, 10.25, 3.96, -10.80, 33.44, 2.57, -0.00, 0.10, 0.01, -17.73, 2.95, 18.79, 0.00, -0.00, -0.00, -13.51, 2.43, 10.25, -0.00, -0.00, -0.00
190.00, -98.00, -255.00, -0.09, -0.19, 0.08, 10.25, 3.97, 10.64, 19.04, -10.36, 0.00, 0.10, 0.01, -15.15, 1.70, 20.50, -0.00, -0.01, 0.00, -13.50, 2.09, 10.42, -0.01, -0.01, -0.00
-154.00, -255.00, 141.00, 0.00, -0.13, -0.18, 10.25, 3.96, 13.11, 19.70, -13.80, -0.00, 0.10, 0.01, -16.47, 3.62, 19.76, 0.00, -0.01, 0.00, -13.57, 2.52, 10.54, -0.00, -0.01, -0.00
0.00, -202.00, -248.00, -0.22, -0.06, -0.09, 10.13, 3.96, 2.43, 16.59, -16.15, -0.02, 0.14, -0.28, -16.89, 2.35, 20.31, 0.02, 0.04, -0.29, -13.69, 2.38, 10.68, 0.02, 0.04, -0.30
-255.00, -113.00, -154.00, -0.04, -0.06, -0.01, 10.38, 3.96, -11.79, 24.06, -9.91, 0.02, 0.07, -0.41, -16.90, 1.42, 19.53, -0.02, -0.03, -0.42, -13.89, 1.96, 10.81, -0.03, -0.03, -0.42
-82.00, -113.00, -32.00, 0.15, -0.18, -0.05, 10.38, 3.98, 4.94, 22.14, -6.50, -0.01, 0.12, -0.12, -15.80, 2.49, 17.49, 0.01, 0.01, -0.13, -13.94, 2.04, 10.91, 0.01, 0.01, -0.14
221.00, -247.00, -97.00, 0.06, -0.19, 0.08, 10.38, 3.97, 25.08, 12.96, -18.05, -0.00, 0.13, 0.01, -15.21, 2.82, 18.83, 0.00, 0.02, -0.00, -13.94, 2.21, 11.03, 0.00, 0.02, -0.00
112.00, -255.00, 141.00, 0.19, 0.00, 0.21, 10.25, 3.96, 27.36, 15.46, -13.68, 0.02, 0.02, 0.23, -17.53, 2.55, 19.09, -0.03, -0.08, 0.22, -14.07, 2.27, 11.13, -0.03, -0.08, 0.21
255.00, 0.00, 255.00, -0.14, -0.01, -0.19, 10.38, 3.96, 32.61, 28.43, 1.75, 0.04, 0.10, 0.47, -15.31, 2.83, 19.43, -0.04, -0.00, 0.46, -14.06, 2.39, 11.27, -0.05, -0.00, 0.46
-212.00, -32.00, -255.00, 0.06, 0.21, 0.21, 10.25, 3.95, -16.00, 27.23, -8.55, -0.13, 0.07, -0.21, -16.01, 1.58, 18.93, 0.13, -0.04, -0.22, -14.07, 2.09, 11.39, 0.12, -0.04, -0.22
113.00, 255.00, 255.00, -0.19, 0.20, 0.24, 10.13, 3.95, 14.79, 42.69, 15.81, -0.03, 0.09, -0.71, -15.55, 2.50, 19.58, 0.03, -0.01, -0.72, -14.15, 2.14, 11.52, 0.03, -0.01, -0.72
-255.00, 255.00, 255.00, -0.01, -0.21, 0.00, 10.38, 3.93, -5.28, 46.38, 11.62, -0.02, 0.12, -0.91, -14.42, 0.92, 17.85, 0.02, 0.01, -0.92, -14.06, 1.53, 11.63, 0.02, 0.01, -0.92
-32.00, -255.00, 0.00, -0.14, 0.17, -0.18, 10.50, 3.95, 15.29, 14.45, -13.87, -0.05, 0.15, -1.06, -15.12, 1.64, 19.75, 0.05, 0.04, -1.07, -14.11, 1.43, 11.75, 0.05, 0.04, -1.07
-212.00, 240.00, -248.00, 0.20, 0.19, 0.16, 10.13, 3.95, -24.07, 39.87, 6.43, -0.02, 0.14, -0.96, -14.06, 0.16, 20.68, 0.02, 0.04, -0.97, -13.84, 0.68, 11.89, 0.02, 0.04, -0.98
255.00, 255.00, 231.00, 0.13, 0.05, 0.11, 10.25, 3.93, 24.79, 39.40, 12.72, -0.04, 0.12, -0.95, -12.42, 1.11, 18.66, 0.04, 0.01, -0.96, -13.26, 0.70, 12.02, 0.04, 0.01, -0.96
202.00, 98.00, 180.00, 0.25, 0.05, -0.14, 10.38, 3.95, 27.62, 30.93, 7.10, -0.02, 0.14, -1.00, -10.18, 1.18, 18.62, 0.01, 0.03, -1.01, -12.20, 0.75, 12.15, 0.02, 0.03, -1.01
255.00, 98.00, -212.00, -0.17, -0.07, -0.19, 10.25, 3.96, 11.60, 28.43, -1.13, -0.03, 0.13, -0.95, -11.88, 1.97, 18.39, 0.03, 0.02, -0.96, -11.95, 1.16, 12.26, 0.03, 0.02, -0.96
-240.00, -127.00, -255.00, 0.13, -0.01, 0.02, 10.38, 3.95, -9.34, 20.55, -13.62, -0.03, 0.14, -1.02, -11.52, -1.17, 20.21, 0.03, 0.03, -1.03, -11.57, -0.06, 12.37, 0.03, 0.03, -1.03
202.00, -32.00, 50.00, 0.21, -0.12, -0.02, 10.00, 3.97, 26.21, 21.41, 1.81, -0.03, 0.14, -1.01, -11.22, -0.01, 20.80, 0.03, 0.03, -1.02, -11.21, -0.19, 12.51, 0.03, 0.03, -1.02
255.00, -190.00, -49.00, 0.21, -0.21, -0.21, 10.13, 3.97, 33.46, 12.66, -12.42, -0.04, 0.12, -0.94, -8.83, 0.11, 19.60, 0.04, 0.02, -0.95, -10.34, -0.22, 12.65, 0.04, 0.02, -0.95
255.00, -255.00, -255.00, 0.09, -0.07, -0.19, 10.38, 3.94, 26.56, 10.54, -23.91, -0.02, 0.15, -1.02, -8.73, 0.92, 19.51, 0.02, 0.05, -1.03, -9.67, 0.17, 12.77, 0.02, 0.05, -1.03
155.00, -128.00, -255.00, -0.07, 0.02, 0.03, 10.25, 3.94, 15.11, 16.63, -15.10, -0.04, 0.11, -0.92, -9.86, 0.32, 17.07, 0.04, 0.01, -0.93, -9.60, 0.13, 12.83, 0.03, 0.01, -0.93
-128.00, 50.00, 66.00, 0.02, 0.25, -0.20, 10.50, 3.98, 8.94, 29.49, 6.81, -0.02, 0.14, -1.05, -6.89, 0.17, 20.42, 0.02, 0.03, -1.06, -8.55, -0.01, 12.97, 0.02, 0.03, -1.06
49.00, 255.00, -255.00, 0.04, -0.22, -0.13, 10.25, 3.97, -2.89, 38.85, 9.08, -0.04, 0.13, -0.99, -7.07, 2.00, 20.95, 0.04, 0.02, -1.00, -7.89, 0.78, 13.11, 0.04, 0.02, -1.00
82.00, -255.00, -201.00, -0.19, -0.04, -0.08, 10.13, 3.95, 22.32, 13.49, -18.91, -0.03, 0.13, -0.97, -5.67, 2.47, 20.05, 0.03, 0.03, -0.98, -7.08, 1.40, 13.24, 0.03, 0.03, -0.98
-255.00, -82.00, -141.00, 0.20, 0.07, 0.06, 10.38, 3.96, -0.77, 26.60, -9.28, -0.03, 0.15, -1.02, -5.25, 2.45, 17.75, 0.03, 0.04, -1.03, -6.42, 1.79, 13.33, 0.03, 0.04, -1.03
255.00, 127.00, 113.00, 0.06, -0.20, 0.12, 10.25, 3.97, 32.01, 32.40, 7.37, -0.03, 0.13, -0.92, -4.87, 2.65, 18.79, 0.03, 0.02, -0.93, -5.89, 2.05, 13.42, 0.03, 0.02, -0.93
113.00, -255.00, 190.00, -0.15, -0.17, -0.20, 10.25, 3.96, 44.40, 17.22, -12.60, -0.02, 0.13, -1.00, -2.66, 3.55, 20.10, 0.02, 0.02, -1.01, -4.80, 2.59, 13.53, 0.02, 0.02, -1.01
-222.00, -240.00, -255.00, 0.05, -0.22, -0.09, 10.50, 3.94, 3.52, 19.96, -21.46, -0.04, 0.13, -1.02, -4.02, 3.79, 20.31, 0.04, 0.03, -1.03, -4.39, 3.03, 13.64, 0.03, 0.03, -1.03
98.00, -255.00, -155.00, -0.21, 0.08, 0.12, 10.25, 3.95, 26.70, 15.78, -18.61, -0.03, 0.14, -0.97, -4.21, 4.88, 18.81, 0.03, 0.03, -0.98, -4.24, 3.79, 13.72, 0.03, 0.03, -0.98
-255.00, 141.00, 191.00, 0.08, -0.11, -0.07, 10.50, 3.95, 7.91, 44.67, 7.41, -0.03, 0.13, -0.98, -2.41, 6.28, 18.21, 0.03, 0.03, -0.99, -3.64, 4.83, 13.81, 0.03, 0.03, -0.99
141.00, -179.00, -127.00, -0.17, 0.09, -0.14, 10.38, 3.96, 27.81, 19.42, -11.36, -0.03, 0.13, -0.96, -4.04, 5.51, 19.70, 0.03, 0.03, -0.97, -3.64, 5.04, 13.89, 0.02, 0.03, -0.97
-239.00, 154.00, -212.00, -0.07, -0.08, 0.22, 10.25, 3.96, -11.09, 43.89, 3.46, -0.03, 0.13, -0.96, -3.99, 8.14, 20.33, 0.03, 0.03, -0.97, -3.62, 6.34, 13.98, 0.03, 0.03, -0.97
-127.00, -141.00, 255.00, -0.05, 0.04, -0.03, 10.38, 3.95, 28.12, 30.21, -5.07, -0.03, 0.13, -0.99, -3.62, 7.40, 19.44, 0.03, 0.03, -1.00, -3.52, 6.73, 14.06, 0.03, 0.03, -1.00
-98.00, 82.00, -66.00, -0.17, -0.18, -0.04, 10.13, 3.98, 8.26, 37.43, 5.79, -0.09, 0.08, -1.01, -2.14, 7.94, 19.58, 0.09, -0.03, -1.02, -2.97, 7.16, 14.18, 0.09, -0.03, -1.02
-239.00, -247.00, -82.00, -0.21, 0.04, -0.20, 10.38, 3.97, 11.15, 25.14, -19.50, -0.07, 0.04, -0.87, -3.19, 8.93, 17.68, 0.07, -0.06, -0.88, -2.98, 7.85, 14.20, 0.07, -0.06, -0.88
-255.00, 82.00, -255.00, 0.06, 0.03, 0.24, 10.50, 3.95, -11.02, 40.43, -2.85, 0.03, 0.19, -1.04, -3.97, 7.98, 19.43, -0.03, 0.09, -1.05, -3.21, 7.86, 14.29, -0.03, 0.09, -1.05
113.00, 66.00, 255.00, -0.04, -0.20, -0.10, 10.38, 3.96, 32.21, 39.37, 7.22, -0.12, 0.02, -0.87, -5.03, 9.06, 19.19, 0.12, -0.08, -0.88, -3.57, 8.27, 14.31, 0.11, -0.08, -0.88
-82.00, -255.00, -167.00, -0.14, -0.05, 0.01, 10.25, 3.96, 15.61, 23.94, -19.28, 0.07, 0.19, -0.94, -4.46, 11.18, 18.71, -0.07, 0.08, -0.95, -3.81, 9.48, 14.40, -0.07, 0.08, -0.95
-212.00, -98.00, 32.00, 0.24, 0.07, -0.23, 10.25, 3.97, 11.49, 35.15, -5.23, 0.06, 0.24, -1.14, -3.87, 11.94, 18.46, -0.06, 0.13, -1.15, -3.83, 10.61, 14.53, -0.06, 0.13, -1.15
255.00, 127.00, -255.00, -0.15, -0.23, -0.02, 10.13, 3.96, 15.04, 38.98, -0.77, -0.11, 0.08, -0.94, -5.44, 10.92, 19.21, 0.11, -0.03, -0.95, -4.21, 10.65, 14.58, 0.11, -0.03, -0.96
-222.00, -255.00, -49.00, -0.07, -0.22, 0.00, 10.25, 3.95, 11.50, 28.62, -17.28, 0.02, 0.16, -0.92, -5.67, 12.94, 19.36, -0.02, 0.06, -0.93, -4.59, 11.60, 14.66, -0.02, 0.06, -0.93
-127.00, -255.00, 0.00, 0.21, -0.03, -0.21, 10.13, 3.96, 17.60, 27.65, -14.64, -0.04, 0.13, -1.09, -7.34, 13.59, 19.86, 0.04, 0.02, -1.10, -5.40, 12.45, 14.72, 0.04, 0.02, -1.11
255.00, -66.00, -255.00, 0.01, 0.04, -0.08, 10.25, 3.96, 20.70, 32.04, -10.13, -0.01, 0.13, -0.87, -7.46, 13.76, 19.95, 0.01, 0.03, -0.88, -5.92, 12.94, 14.80, 0.01, 0.03, -0.88
32.00, 82.00, -141.00, 0.18, 0.23, 0.14, 10.38, 3.97, 6.30, 41.96, 4.24, -0.04, 0.13, -1.04, -8.29, 14.24, 19.41, 0.04, 0.03, -1.05, -6.59, 13.45, 14.86, 0.04, 0.02, -1.05
247.00, 255.00, 211.00, 0.08, -0.07, -0.20, 10.63, 3.96, 27.23, 53.03, 12.36, -0.02, 0.14, -1.03, -8.81, 14.84, 17.91, 0.02, 0.04, -1.04, -7.29, 14.05, 14.90, 0.02, 0.04, -1.04
141.00, -127.00, -255.00, 0.19, 0.21, 0.25, 10.38, 3.95, 15.81, 30.78, -11.09, -0.03, 0.12, -0.94, -8.33, 14.31, 20.87, 0.03, 0.02, -0.95, -7.53, 14.03, 15.02, 0.03, 0.02, -0.95
255.00, 255.00, 255.00, -0.17, 0.12, -0.22, 10.13, 3.94, 27.59, 54.00, 12.96, -0.02, 0.14, -1.02, -10.68, 15.19, 18.98, 0.02, 0.04, -1.03, -8.47, 14.50, 15.07, 0.02, 0.04, -1.03
-240.00, 191.00, -255.00, -0.07, 0.21, -0.11, 10.50, 3.93, -21.72, 51.89, 2.09, -0.02, 0.14, -0.94, -11.68, 14.19, 19.11, 0.02, 0.03, -0.95, -9.37, 14.27, 15.13, 0.02, 0.03, -0.95
-128.00, 255.00, -180.00, 0.16, 0.24, 0.22, 10.38, 3.95, -16.12, 54.72, 8.96, -0.02, 0.13, -0.98, -13.61, 15.96, 18.69, 0.02, 0.02, -0.99, -10.60, 14.96, 15.14, 0.02, 0.02, -0.99
231.00, 255.00, 255.00, -0.23, -0.17, -0.07, 10.63, 3.94, 25.65, 54.82, 12.22, -0.02, 0.13, -1.04, -11.25, 15.72, 17.61, 0.02, 0.03, -1.05, -10.83, 15.23, 15.19, 0.02, 0.03, -1.05
-255.00, -240.00, -128.00, 0.23, 0.04, -0.24, 10.63, 3.94, -1.59, 31.37, -18.28, -0.03, 0.13, -0.97, -12.79, 14.44, 19.45, 0.03, 0.03, -0.98, -11.39, 14.74, 15.27, 0.03, 0.03, -0.99
255.00, 83.00, -255.00, -0.15, 0.06, -0.14, 10.25, 3.95, 8.10, 42.18, -3.20, -0.03, 0.12, -0.99, -14.08, 16.41, 18.79, 0.03, 0.01, -1.00, -12.19, 15.41, 15.30, 0.03, 0.01, -1.00
-222.00, 113.00, -212.00, -0.08, -0.13, 0.19, 10.50, 3.95, -19.10, 49.50, 0.76, -0.01, 0.14, -0.98, -14.69, 16.35, 19.13, 0.01, 0.04, -0.99, -12.93, 15.74, 15.37, 0.01, 0.04, -0.99
-141.00, -202.00, 255.00, -0.15, -0.21, 0.24, 10.38, 3.95, 19.13, 34.26, -10.52, -0.03, 0.11, -0.97, -14.10, 14.01, 18.54, 0.03, 0.01, -0.98, -13.27, 14.83, 15.45, 0.03, 0.01, -0.98
-222.00, -255.00, 255.00, 0.06, 0.10, 0.19, 10.38, 3.94, 15.52, 33.31, -17.14, -0.02, 0.14, -1.04, -14.83, 13.76, 17.31, 0.02, 0.03, -1.05, -13.79, 14.24, 15.48, 0.02, 0.03, -1.05
113.00, 167.00, 255.00, 0.15, 0.14, 0.07, 10.50, 3.95, 16.31, 49.04, 11.17, -0.04, 0.13, -1.01, -17.04, 13.53, 18.59, 0.04, 0.03, -1.02, -14.78, 13.80, 15.50, 0.03, 0.03, -1.02
222.00, 212.00, 128.00, 0.18, -0.23, 0.00, 9.88, 3.95, 14.76, 48.47, 12.22, -0.03, 0.13, -0.99, -17.77, 13.73, 19.28, 0.03, 0.03, -1.00, -15.65, 13.65, 15.55, 0.03, 0.03, -1.00
248.00, -255.00, 0.00, 0.20, 0.19, -0.09, 10.25, 3.95, 28.92, 23.22, -16.73, -0.03, 0.13, -0.92, -17.38, 13.10, 19.33, 0.03, 0.03, -0.93, -16.11, 13.27, 15.62, 0.03, 0.03, -0.93
255.00, 255.00, -154.00, 0.25, -0.09, 0.13, 10.13, 3.95, 4.36, 47.56, 7.34, -0.02, 0.14, -0.92, -16.06, 12.87, 18.05, 0.02, 0.03, -0.93, -16.12, 12.97, 15.68, 0.02, 0.03, -0.93
255.00, -155.00, 202.00, -0.16, 0.17, 0.24, 10.38, 3.94, 33.41, 29.38, -9.88, -0.03, 0.13, -0.99, -18.26, 12.26, 17.23, 0.03, 0.03, -1.00, -16.77, 12.56, 15.68, 0.03, 0.03, -1.00
-232.00, 240.00, 255.00, 0.19, 0.05, -0.09, 10.25, 3.94, -6.28, 54.30, 12.10, -0.03, 0.13, -1.00, -17.25, 10.18, 18.50, 0.03, 0.03, -1.01, -16.90, 11.33, 15.74, 0.03, 0.03, -1.01
255.00, 98.00, -155.00, 0.15, -0.15, 0.14, 10.13, 3.95, 6.88, 37.17, 1.56, -0.04, 0.13, -0.99, -19.12, 10.75, 19.08, 0.04, 0.03, -1.00, -17.52, 10.93, 15.78, 0.03, 0.03, -1.00
222.00, -222.00, 212.00, -0.20, 0.19, -0.23, 10.50, 3.95, 35.06, 24.03, -11.79, -0.02, 0.14, -1.01, -17.79, 9.45, 19.65, 0.02, 0.04, -1.02, -17.55, 10.09, 15.86, 0.02, 0.03, -1.02
-255.00, 255.00, -255.00, -0.03, -0.08, -0.10, 10.38, 3.93, -31.16, 48.87, 3.00, -0.01, 0.13, -0.97, -18.09, 7.42, 17.71, 0.01, 0.03, -0.98, -17.71, 8.74, 15.89, 0.01, 0.03, -0.98
-66.00, -142.00, -168.00, 0.03, -0.12, -0.19, 10.25, 3.95, -2.75, 24.93, -9.25, -0.02, 0.14, -0.98, -19.51, 7.24, 19.99, 0.02, 0.03, -0.99, -18.16, 7.91, 15.95, 0.02, 0.03, -0.99
66.00, -191.00, -255.00, -0.13, -0.12, 0.08, 10.50, 3.97, 3.22, 20.33, -15.61, -0.04, 0.13, -0.96, -19.13, 6.23, 20.42, 0.04, 0.03, -0.97, -18.34, 6.99, 16.03, 0.04, 0.03, -0.97
-201.00, -190.00, 141.00, 0.18, -0.01, -0.23, 10.50, 3.96, 6.26, 26.43, -8.43, -0.03, 0.14, -0.98, -18.16, 6.48, 20.58, 0.03, 0.03, -0.99, -18.19, 6.60, 16.13, 0.03, 0.03, -0.99
248.00, -32.00, -255.00, 0.00, -0.20, 0.13, 10.75, 3.96, 7.60, 25.81, -7.64, -0.02, 0.14, -1.01, -18.75, 5.75, 20.17, 0.02, 0.04, -1.02, -18.28, 6.06, 16.20, 0.02, 0.04, -1.02
0.00, -255.00, 202.00, -0.22, -0.20, -0.11, 10.25, 3.96, 24.92, 19.94, -12.77, -0.03, 0.13, -0.92, -16.21, 4.99, 19.53, 0.03, 0.02, -0.93, -17.66, 5.41, 16.29, 0.03, 0.02, -0.93
-255.00, -255.00, -179.00, 0.17, -0.01, 0.01, 10.25, 3.95, -6.75, 20.29, -21.28, 0.02, 0.17, -0.94, -16.20, 4.11, 19.45, -0.02, 0.07, -0.95, -17.22, 4.70, 16.34, -0.02, 0.07, -0.95
240.00, -32.00, 32.00, -0.18, -0.15, 0.02, 10.00, 3.96, 21.98, 25.10, 0.57, -0.04, 0.12, -1.00, -16.74, 4.22, 20.52, 0.04, 0.02, -1.01, -16.98, 4.33, 16.42, 0.04, 0.02, -1.01
-248.00, -222.00, 49.00, 0.22, -0.15, -0.11, 10.38, 3.97, 2.15, 21.15, -12.17, -0.04, 0.12, -1.00, -16.62, 2.69, 20.88, 0.04, 0.02, -1.01, -16.75, 3.41, 16.51, 0.04, 0.02, -1.01
255.00, -221.00, -179.00, -0.16, 0.03, 0.10, 10.00, 3.95, 22.17, 13.97, -18.05, 0.01, 0.16, -0.95, -15.31, 3.05, 19.75, -0.01, 0.06, -0.96, -16.29, 3.11, 16.57, -0.01, 0.06, -0.96
-231.00, 66.00, 167.00, 0.23, -0.18, 0.24, 10.00, 3.95, -1.45, 33.91, 6.59, -0.07, 0.12, -0.94, -15.07, 0.43, 20.52, 0.07, 0.02, -0.95, -15.83, 1.76, 16.66, 0.07, 0.02, -0.95
255.00, -248.00, 255.00, -0.19, -0.20, 0.20, 10.38, 3.95, 42.69, 16.05, -14.18, 0.01, 0.16, -0.94, -14.69, 2.11, 20.15, -0.01, 0.05, -0.95, -15.45, 1.79, 16.73, -0.01, 0.05, -0.95
-255.00, -255.00, 255.00, -0.15, 0.06, -0.01, 10.25, 3.92, 15.00, 20.87, -15.10, -0.10, 0.08, -1.06, -13.39, 0.51, 19.93, 0.10, -0.02, -1.07, -14.69, 1.04, 16.85, 0.10, -0.02, -1.07
-223.00, 114.00, -32.00, 0.09, 0.00, 0.23, 10.25, 3.95, -10.19, 33.09, 7.40, 0.04, 0.18, -0.89, -13.69, -0.52, 20.72, -0.04, 0.07, -0.90, -14.35, 0.22, 16.90, -0.04, 0.07, -0.90
155.00, 0.00, 255.00, -0.22, 0.23, 0.02, 10.25, 3.97, 29.66, 26.91, 4.43, -0.01, 0.17, -0.72, -12.74, 0.34, 20.35, 0.01, 0.06, -0.73, -13.97, 0.15, 16.96, 0.01, 0.06, -0.73
-255.00, 255.00, 49.00, 0.25, 0.18, 0.14, 10.13, 3.96, -10.82, 42.93, 12.07, -0.12, 0.22, -0.25, -10.93, 0.38, 18.81, 0.12, 0.12, -0.26, -13.74, 0.11, 17.05, 0.13, 0.12, -0.26
255.00, 248.00, 212.00, -0.20, 0.09, -0.16, 10.75, 3.94, 24.25, 38.28, 13.45, -0.15, 0.17, -0.32, -12.41, 0.62, 19.50, 0.15, 0.06, -0.32, -13.62, 0.24, 17.11, 0.15, 0.06, -0.32
-255.00, 155.00, -232.00, 0.18, -0.10, -0.07, 10.25, 3.94, -20.24, 34.61, 2.98, 0.04, 0.09, -0.77, -11.58, -1.52, 20.91, -0.04, -0.01, -0.78, -13.21, -0.46, 17.16, -0.04, -0.01, -0.78
248.00, -168.00, -128.00, 0.04, -0.18, 0.17, 10.13, 3.95, 26.21, 14.94, -10.03, 0.02, 0.20, -1.21, -11.17, 1.49, 22.01, -0.02, 0.10, -1.22, -12.44, 0.31, 17.26, -0.02, 0.10, -1.22
82.00, -248.00, 240.00, -0.24, 0.18, -0.06, 10.50, 3.95, 38.31, 15.67, -9.68, -0.07, 0.11, -0.91, -8.81, 0.46, 22.22, 0.07, 0.01, -0.92, -11.35, 0.20, 17.41, 0.07, 0.01, -0.92
-255.00, 248.00, -113.00, 0.24, -0.06, -0.06, 10.13, 3.95, -16.52, 41.14, 9.70, 0.01, 0.12, -0.97, -9.77, 0.04, 19.73, -0.01, 0.02, -0.98, -10.85, 0.04, 17.45, -0.01, 0.02, -0.98
255.00, -113.00, -113.00, 0.01, 0.05, -0.05, 10.75, 3.95, 27.51, 15.95, -8.13, -0.00, 0.19, -1.10, -8.77, -0.06, 19.77, 0.00, 0.09, -1.11, -10.11, -0.10, 17.49, 0.01, 0.09, -1.11
32.00, 98.00, -98.00, -0.11, 0.22, 0.05, 10.25, 3.98, 7.02, 30.62, 6.50, -0.07, 0.14, -1.07, -8.86, 1.96, 19.72, 0.07, 0.04, -1.08, -9.64, 0.82, 17.57, 0.07, 0.04, -1.08
-178.00, 255.00, 97.00, -0.08, -0.08, 0.16, 10.00, 3.98, -1.72, 43.39, 14.38, -0.02, 0.15, -0.99, -8.41, 1.97, 19.30, 0.02, 0.04, -1.00, -9.24, 1.28, 17.61, 0.02, 0.04, -1.00
-140.00, -140.00, 230.00, 0.08, 0.06, -0.10, 10.25, 3.96, 23.79, 24.20, -4.62, 0.09, -0.00, -1.25, -6.13, 1.65, 19.96, -0.09, -0.11, -1.26, -8.00, 1.34, 17.57, -0.09, -0.10, -1.26
141.00, 113.00, -167.00, -0.19, -0.03, -0.13, 10.63, 3.97, 12.93, 31.76, 2.95, 0.04, 0.03, -1.87, -5.50, 3.42, 18.11, -0.04, -0.07, -1.88, -6.50, 2.69, 17.51, -0.04, -0.07, -1.88
-255.00, -66.00, -201.00, 0.05, 0.22, -0.24, 10.50, 3.97, -4.31, 28.65, -9.78, -0.03, 0.26, -2.27, -5.41, 3.74, 18.36, 0.03, 0.16, -2.28, -5.66, 3.51, 17.60, 0.03, 0.16, -2.28
98.00, 255.00, -255.00, -0.08, -0.21, 0.19, 10.38, 3.95, 0.98, 42.52, 7.00, 0.00, 0.43, -2.37, -6.14, 6.22, 19.17, -0.00, 0.32, -2.38, -6.00, 5.82, 17.92, -0.00, 0.32, -2.38
-141.00, -255.00, 255.00, -0.19, 0.04, 0.07, 10.38, 3.94, 32.74, 25.50, -13.30, -0.03, 0.44, -2.20, -2.35, 7.57, 19.92, 0.03, 0.34, -2.21, -3.11, 7.29, 18.21, 0.03, 0.34, -2.21
-255.00, 83.00, 128.00, -0.19, 0.05, 0.13, 10.25, 3.95, 5.60, 41.67, 5.90, -0.24, 0.33, -2.07, -4.25, 7.29, 19.57, 0.24, 0.23, -2.08, -3.87, 7.30, 18.16, 0.24, 0.23, -2.08
-255.00, 98.00, 202.00, 0.23, 0.12, -0.17, 10.63, 3.96, 9.49, 44.27, 5.73, -0.20, -0.12, -1.79, -2.92, 7.91, 18.48, 0.20, -0.22, -1.80, -3.26, 7.73, 18.17, 0.20, -0.22, -1.80
255.00, 191.00, -240.00, 0.03, 0.08, -0.20, 10.63, 3.95, 14.29, 42.55, 3.26, 0.06, 0.19, -1.29, -4.47, 11.15, 19.67, -0.06, 0.08, -1.30, -3.94, 9.96, 18.31, -0.06, 0.08, -1.30
66.00, 141.00, -255.00, -0.18, -0.17, 0.05, 10.50, 3.95, 4.71, 41.46, 4.28, -0.17, 0.26, -1.16, -4.55, 10.90, 21.02, 0.17, 0.15, -1.17, -4.13, 10.48, 18.41, 0.17, 0.15, -1.17
-248.00, -240.00, 98.00, 0.06, 0.17, -0.08, 10.13, 3.95, 17.06, 31.06, -13.46, 0.03, 0.18, -0.80, -4.56, 12.84, 20.59, -0.03, 0.07, -0.81, -4.33, 11.53, 18.43, -0.03, 0.07, -0.81
113.00, 240.00, -141.00, -0.22, 0.09, -0.14, 10.38, 3.96, 7.61, 48.77, 9.66, -0.02, 0.17, -1.10, -5.83, 13.46, 18.27, 0.02, 0.06, -1.11, -4.92, 12.44, 18.41, 0.02, 0.06, -1.11
-255.00, 154.00, -212.00, 0.16, -0.08, 0.08, 10.13, 3.95, -14.02, 48.19, 1.49, -0.04, 0.13, -0.97, -6.07, 12.08, 18.70, 0.04, 0.03, -0.98, -5.35, 12.24, 18.40, 0.04, 0.03, -0.98
231.00, -141.00, 141.00, -0.18, -0.10, 0.11, 10.63, 3.95, 42.49, 32.04, -5.17, -0.02, 0.11, -0.96, -4.80, 15.01, 20.52, 0.02, 0.01, -0.96, -5.24, 13.43, 18.41, 0.02, 0.01, -0.96
-248.00, -167.00, 179.00, 0.23, 0.03, 0.11, 10.50, 3.95, 15.97, 37.66, -7.75, -0.03, 0.16, -1.08, -6.43, 14.97, 20.34, 0.03, 0.06, -1.09, -5.66, 14.12, 18.43, 0.03, 0.06, -1.09
255.00, 66.00, 179.00, -0.16, 0.09, -0.14, 10.75, 3.95, 34.48, 43.44, 5.32, -0.02, 0.12, -0.91, -7.52, 15.87, 19.36, 0.02, 0.02, -0.92, -6.27, 14.88, 18.40, 0.02, 0.02, -0.92
-231.00, 154.00, -212.00, 0.18, 0.00, -0.20, 10.63, 3.95, -16.72, 49.81, 2.18, -0.02, 0.12, -0.99, -10.16, 14.27, 18.82, 0.02, 0.02, -1.00, -7.49, 14.60, 18.37, 0.02, 0.02, -1.00
248.00, 0.00, -255.00, -0.03, -0.02, -0.19, 10.50, 3.95, 15.26, 37.12, -6.65, -0.03, 0.14, -1.01, -9.81, 15.48, 19.41, 0.03, 0.04, -1.02, -8.27, 14.97, 18.36, 0.02, 0.04, -1.02
-66.00, -49.00, -255.00, 0.06, -0.03, 0.05, 10.25, 3.96, -1.67, 37.23, -6.94, -0.02, 0.12, -0.94, -10.84, 14.95, 19.78, 0.02, 0.02, -0.95, -9.06, 14.91, 18.35, 0.02, 0.02, -0.95
113.00, -66.00, 98.00, -0.07, 0.07, 0.06, 10.38, 3.98, 22.07, 36.28, 0.01, -0.03, 0.14, -1.02, -13.87, 15.21, 19.44, 0.03, 0.03, -1.03, -10.59, 15.02, 18.30, 0.03, 0.03, -1.03
-127.00, 127.00, 112.00, 0.17, 0.01, -0.24, 10.50, 3.99, 2.92, 51.01, 9.65, -0.02, 0.14, -0.94, -11.95, 17.10, 19.17, 0.02, 0.03, -0.95, -11.07, 15.91, 18.28, 0.02, 0.03, -0.95
239.00, 32.00, -255.00, 0.22, 0.08, -0.06, 10.25, 3.97, 10.77, 38.42, -4.52, -0.03, 0.14, -0.96, -12.50, 15.06, 19.63, 0.03, 0.03, -0.97, -11.54, 15.45, 18.29, 0.03, 0.03, -0.97
255.00, 141.00, -113.00, -0.16, 0.02, 0.04, 10.75, 3.96, 14.81, 45.09, 3.93, -0.02, 0.14, -1.00, -11.44, 16.33, 18.22, 0.02, 0.04, -1.01, -11.63, 15.80, 18.28, 0.02, 0.04, -1.01
-231.00, 49.00, 82.00, -0.08, -0.06, -0.20, 10.63, 3.97, -4.38, 45.09, 4.95, -0.03, 0.13, -1.00, -14.90, 13.57, 20.03, 0.03, 0.03, -1.01, -12.65, 14.69, 18.28, 0.03, 0.03, -1.01
-141.00, -113.00, -255.00, -0.21, -0.11, -0.02, 10.25, 3.97, -8.54, 34.95, -12.25, -0.03, 0.14, -1.00, -15.89, 14.66, 19.24, 0.03, 0.03, -1.01, -13.70, 14.62, 18.25, 0.03, 0.03, -1.01
-255.00, -179.00, -49.00, -0.13, 0.19, 0.24, 10.38, 3.96, -4.36, 33.94, -13.20, -0.03, 0.14, -0.96, -16.75, 14.07, 18.13, 0.03, 0.04, -0.97, -14.68, 14.31, 18.19, 0.03, 0.04, -0.97
-202.00, 255.00, 255.00, -0.17, 0.07, -0.05, 10.63, 3.95, -3.20, 57.69, 12.93, -0.03, 0.11, -0.95, -15.38, 13.36, 18.08, 0.03, 0.01, -0.96, -14.98, 13.81, 18.17, 0.03, 0.01, -0.96
-240.00, 128.00, -98.00, -0.12, 0.18, 0.08, 10.50, 3.95, -16.87, 46.07, 3.92, -0.01, 0.13, -0.99, -15.87, 11.60, 18.29, 0.01, 0.03, -1.00, -15.31, 12.72, 18.17, 0.01, 0.03, -1.00
-191.00, 248.00, 141.00, -0.04, -0.01, 0.14, 10.38, 3.96, -8.42, 53.64, 13.84, -0.03, 0.14, -0.96, -16.58, 11.83, 19.03, 0.03, 0.03, -0.97, -15.73, 12.23, 18.17, 0.03, 0.03, -0.97
-82.00, -32.00, 212.00, -0.15, -0.22, -0.02, 10.50, 3.97, 9.49, 38.19, 3.22, -0.03, 0.14, -1.01, -18.73, 11.62, 20.30, 0.03, 0.04, -1.02, -16.64, 11.85, 18.17, 0.03, 0.04, -1.02
-221.00, -255.00, -49.00, 0.04, 0.02, -0.22, 10.38, 3.97, -0.56, 27.02, -17.64, -0.03, 0.13, -1.00, -17.74, 11.43, 19.09, 0.03, 0.03, -1.01, -17.02, 11.56, 18.17, 0.03, 0.03, -1.01
82.00, 49.00, -255.00, -0.07, -0.01, -0.22, 10.38, 3.96, -4.44, 35.79, -2.05, -0.02, 0.14, -0.93, -18.16, 10.14, 19.19, 0.02, 0.03, -0.94, -17.39, 10.81, 18.18, 0.02, 0.03, -0.94
-127.00, -32.00, -255.00, -0.20, 0.12, -0.24, 10.25, 3.97, -14.57, 33.32, -6.45, -0.02, 0.14, -0.97, -19.48, 9.31, 19.86, 0.02, 0.03, -0.98, -17.99, 10.03, 18.18, 0.02, 0.03, -0.98
-255.00, 190.00, -255.00, 0.11, 0.01, 0.04, 10.38, 3.95, -29.79, 46.01, 2.05, -0.03, 0.14, -0.99, -18.68, 7.90, 19.43, 0.03, 0.03, -1.00, -18.21, 8.94, 18.20, 0.03, 0.03, -1.00
179.00, 32.00, 82.00, -0.10, 0.02, -0.09, 10.75, 3.96, 17.96, 34.14, 5.70, -0.03, 0.13, -0.99, -16.94, 8.90, 20.42, 0.03, 0.02, -1.00, -17.83, 8.78, 18.26, 0.03, 0.02, -1.00
-167.00, 49.00, -154.00, 0.01, -0.20, -0.10, 10.50, 3.98, -16.65, 36.67, 1.01, -0.03, 0.14, -1.02, -20.31, 7.93, 19.55, 0.03, 0.03, -1.03, -18.60, 8.29, 18.25, 0.02, 0.03, -1.03
32.00, -255.00, -166.00, -0.01, -0.16, 0.00, 10.38, 3.97, 7.53, 18.06, -18.17, -0.03, 0.14, -0.95, -19.18, 6.66, 19.47, 0.02, 0.03, -0.96, -18.78, 7.42, 18.26, 0.02, 0.03, -0.96
-32.00, -230.00, 0.00, -0.03, 0.05, 0.03, 10.13, 3.98, 11.93, 20.17, -11.69, -0.03, 0.13, -0.97, -17.68, 6.37, 20.09, 0.03, 0.03, -0.98, -18.45, 6.81, 18.31, 0.03, 0.03, -0.98
-66.00, 97.00, 66.00, 0.00, 0.02, -0.20, 10.38, 3.99, 0.58, 36.99, 9.89, -0.03, 0.14, -0.97, -17.00, 6.12, 20.61, 0.03, 0.03, -0.98, -18.01, 6.35, 18.38, 0.03, 0.03, -0.98
0.00, 49.00, -255.00, -0.23, 0.13, 0.14, 10.50, 3.99, -9.18, 30.33, 0.85, -0.03, 0.13, -0.98, -18.08, 3.86, 21.92, 0.03, 0.02, -0.99, -17.95, 5.06, 18.44, 0.03, 0.02, -0.99
-255.00, 201.00, 211.00, 0.01, 0.05, -0.05, 10.50, 3.96, -7.72, 45.37, 10.89, -0.03, 0.14, -1.02, -16.68, 3.42, 19.09, 0.03, 0.03, -1.03, -17.56, 4.18, 18.47, 0.03, 0.03, -1.03
32.00, 98.00, -98.00, 0.01, 0.14, 0.23, 10.13, 3.97, -0.53, 30.61, 7.09, -0.03, 0.14, -0.96, -16.39, 1.92, 20.22, 0.02, 0.03, -0.97, -17.19, 3.01, 18.50, 0.03, 0.03, -0.97
32.00, 211.00, 255.00, -0.04, 0.04, -0.08, 10.50, 3.97, 11.17, 41.22, 13.91, -0.03, 0.13, -0.95, -16.07, 2.50, 18.92, 0.03, 0.03, -0.96, -16.89, 2.67, 18.53, 0.04, 0.03, -0.96
-82.00, 82.00, -141.00, 0.23, -0.19, 0.00, 10.50, 3.97, -7.66, 29.96, 5.00, -0.03, 0.14, -1.21, -15.65, 0.93, 20.58, 0.03, 0.04, -1.22, -16.36, 1.68, 18.57, 0.03, 0.04, -1.22
255.00, -255.00, 0.00, 0.04, -0.22, 0.02, 10.63, 3.97, 31.07, 12.16, -15.39, -0.01, 0.14, -0.88, -15.73, 2.16, 20.85, 0.01, 0.03, -0.89, -16.14, 1.76, 18.61, 0.01, 0.03, -0.89
82.00, -255.00, 49.00, 0.05, 0.08, 0.02, 10.38, 3.96, 25.10, 13.34, -13.17, -0.05, 0.12, -0.97, -14.03, 1.27, 19.95, 0.05, 0.02, -0.98, -15.50, 1.42, 18.67, 0.05, 0.02, -0.98
98.00, 141.00, 49.00, -0.13, 0.03, 0.17, 10.38, 3.98, 11.60, 31.48, 11.15, -0.00, 0.18, -1.04, -13.02, 0.20, 20.03, 0.00, 0.07, -1.05, -14.70, 0.74, 18.70, 0.00, 0.07, -1.05
-201.00, 66.00, 239.00, 0.08, 0.00, -0.13, 10.63, 3.97, 5.44, 34.49, 5.88, -0.04, 0.11, -0.87, -12.98, 0.33, 19.24, 0.04, 0.00, -0.88, -14.26, 0.45, 18.73, 0.04, 0.00, -0.88
141.00, 0.00, -201.00, 0.18, 0.23, 0.09, 10.50, 3.97, 9.51, 22.76, -1.64, -0.03, 0.14, -1.06, -11.90, 0.23, 20.46, 0.02, 0.03, -1.07, -13.48, 0.24, 18.78, 0.03, 0.03, -1.07
247.00, 255.00, 154.00, -0.19, -0.06, 0.01, 10.50, 3.96, 22.30, 38.16, 14.86, -0.02, 0.14, -1.00, -11.30, 0.94, 20.45, 0.02, 0.04, -1.01, -12.79, 0.46, 18.84, 0.02, 0.04, -1.01
-255.00, -113.00, 32.00, 0.14, -0.04, -0.17, 10.63, 3.95, 2.91, 22.30, -5.39, -0.03, 0.12, -0.95, -10.53, -1.26, 19.98, 0.03, 0.01, -0.96, -12.12, -0.43, 18.88, 0.04, 0.01, -0.96
212.00, -82.00, -240.00, 0.15, 0.14, -0.03, 10.50, 3.96, 16.37, 17.11, -9.31, -0.02, 0.15, -1.03, -10.66, -0.79, 20.19, 0.02, 0.04, -1.04, -11.63, -0.68, 18.92, 0.02, 0.04, -1.04
222.00, 212.00, -66.00, 0.03, -0.18, -0.06, 10.63, 3.96, 14.82, 33.91, 9.43, -0.02, 0.13, -0.93, -9.08, 0.85, 18.73, 0.02, 0.03, -0.93, -10.95, -0.07, 18.94, 0.02, 0.03, -0.93
66.00, -248.00, -113.00, -0.10, -0.04, 0.05, 10.63, 3.97, 21.56, 11.06, -15.21, -0.02, 0.13, -0.98, -9.20, -0.44, 20.26, 0.02, 0.03, -0.99, -10.42, -0.32, 18.98, 0.02, 0.03, -0.99
-167.00, -82.00, 98.00, -0.07, 0.14, -0.13, 10.38, 3.98, 10.46, 24.33, -1.10, -0.03, 0.13, -1.05, -9.85, 0.58, 20.26, 0.03, 0.03, -1.06, -10.21, 0.03, 19.00, 0.03, 0.03, -1.06
-127.00, 211.00, -201.00, -0.18, 0.22, 0.04, 10.63, 3.97, -7.34, 37.62, 7.50, -0.03, 0.13, -0.94, -5.20, 1.08, 19.69, 0.03, 0.03, -0.94, -8.82, 0.40, 19.07, 0.04, 0.03, -0.94
-247.00, 255.00, 82.00, -0.04, -0.14, 0.10, 10.63, 3.95, -4.09, 43.76, 12.70, -0.03, 0.13, -1.00, -6.14, 1.06, 18.89, 0.03, 0.03, -1.01, -8.05, 0.63, 19.10, 0.03, 0.03, -1.01
-82.00, -212.00, 167.00, 0.18, 0.22, -0.16, 10.63, 3.96, 25.93, 18.94, -10.68, -0.01, 0.14, -0.97, -7.39, 1.66, 18.45, 0.01, 0.03, -0.98, -7.89, 1.06, 19.10, 0.01, 0.03, -0.98
248.00, 255.00, -231.00, -0.03, -0.06, 0.02, 10.50, 3.95, 10.79, 37.31, 6.24, -0.02, 0.13, -0.94, -5.82, 2.46, 19.51, 0.02, 0.03, -0.95, -7.34, 1.62, 19.13, 0.02, 0.03, -0.95
-66.00, -113.00, 50.00, -0.17, -0.12, 0.24, 10.88, 3.96, 19.98, 24.10, -3.27, -0.03, 0.14, -1.02, -5.33, 3.94, 19.28, 0.03, 0.03, -1.03, -6.76, 2.63, 19.15, 0.03, 0.03, -1.03
-239.00, -190.00, 255.00, -0.07, -0.17, -0.06, 10.38, 3.96, 22.81, 26.53, -9.35, -0.04, 0.13, -0.97, -4.24, 3.72, 20.45, 0.04, 0.03, -0.98, -6.04, 3.06, 19.20, 0.04, 0.03, -0.98
-127.00, -239.00, -113.00, -0.20, 0.16, -0.21, 10.63, 3.95, 13.17, 18.81, -16.53, -0.03, 0.13, -0.99, -6.14, 4.55, 18.88, 0.03, 0.03, -1.00, -6.11, 3.72, 19.20, 0.03, 0.03, -1.00
-255.00, 231.00, -255.00, 0.15, 0.25, 0.10, 10.25, 3.95, -16.40, 44.75, 3.70, -0.03, 0.14, -0.98, -3.92, 4.48, 19.33, 0.03, 0.04, -0.99, -5.51, 4.01, 19.22, 0.03, 0.04, -0.99
222.00, 255.00, 167.00, -0.13, 0.00, -0.03, 10.25, 3.94, 30.02, 44.36, 15.16, -0.02, 0.14, -0.95, -2.64, 6.78, 20.27, 0.02, 0.04, -0.96, -4.74, 5.19, 19.25, 0.02, 0.04, -0.96
-202.00, 0.00, -66.00, 0.12, 0.04, 0.11, 10.75, 3.97, 2.76, 33.44, 1.83, -0.03, 0.13, -0.99, -4.83, 6.25, 21.09, 0.03, 0.03, -1.00, -4.76, 5.63, 19.27, 0.03, 0.03, -1.00
190.00, 82.00, 179.00, 0.19, -0.07, 0.19, 10.88, 3.98, 35.12, 37.58, 7.66, -0.03, 0.13, -1.00, -2.72, 8.48, 19.59, 0.03, 0.03, -1.01, -4.21, 6.90, 19.29, 0.04, 0.03, -1.01
255.00, -127.00, 255.00, 0.07, -0.20, 0.15, 10.50, 3.95, 48.79, 26.28, -6.26, -0.03, 0.12, -1.01, -4.17, 6.86, 19.08, 0.03, 0.02, -1.02, -4.25, 6.87, 19.28, 0.03, 0.02, -1.02
127.00, -255.00, 222.00, 0.09, 0.09, 0.10, 10.25, 3.95, 44.11, 22.67, -13.50, -0.03, 0.16, -0.93, -4.97, 8.49, 19.28, 0.03, 0.06, -0.94, -4.51, 7.59, 19.28, 0.03, 0.06, -0.94
155.00, 155.00, 167.00, -0.09, 0.22, 0.14, 10.50, 3.96, 27.24, 42.24, 11.37, -0.04, 0.11, -0.99, -5.23, 9.26, 19.55, 0.04, 0.01, -1.00, -4.78, 8.33, 19.25, 0.04, 0.01, -1.00
-154.00, 255.00, 212.00, 0.10, -0.23, -0.02, 10.63, 3.95, 9.76, 52.92, 14.54, -0.01, 0.15, -0.98, -3.39, 10.31, 18.81, 0.01, 0.05, -0.99, -4.47, 9.20, 19.24, 0.01, 0.05, -0.98
167.00, -255.00, -49.00, -0.11, 0.15, 0.01, 10.38, 3.95, 33.46, 21.89, -16.08, -0.04, 0.12, -0.98, -6.10, 11.29, 19.36, 0.04, 0.02, -0.99, -5.02, 10.14, 19.20, 0.04, 0.02, -0.99
-179.00, 222.00, 32.00, 0.11, 0.23, 0.02, 10.63, 3.97, 1.58, 50.48, 11.66, -0.02, 0.15, -1.02, -3.28, 11.52, 18.46, 0.02, 0.04, -1.03, -4.59, 10.75, 19.19, 0.02, 0.04, -1.03
179.00, 255.00, 49.00, -0.09, 0.25, 0.16, 10.50, 3.96, 19.19, 49.77, 13.96, -0.03, 0.13, -0.99, -5.98, 13.16, 18.93, 0.03, 0.03, -1.00, -5.11, 11.86, 19.14, 0.03, 0.03, -1.00
-154.00, 255.00, 231.00, -0.11, 0.14, -0.02, 10.50, 3.95, 7.19, 56.08, 15.14, -0.02, 0.14, -0.95, -6.79, 13.15, 19.50, 0.02, 0.03, -0.96, -5.67, 12.43, 19.12, 0.02, 0.03, -0.96
-179.00, 212.00, -50.00, 0.05, 0.08, 0.16, 10.63, 3.96, -6.01, 50.86, 11.34, -0.03, 0.14, -0.98, -7.61, 13.07, 19.90, 0.03, 0.03, -0.99, -6.30, 12.69, 19.10, 0.03, 0.03, -0.99
98.00, 141.00, 231.00, -0.08, 0.22, -0.24, 10.63, 3.97, 25.90, 48.03, 11.12, -0.03, 0.13, -0.98, -6.62, 14.13, 19.34, 0.03, 0.03, -0.99, -6.48, 13.31, 19.09, 0.03, 0.03, -0.99
-141.00, 255.00, -255.00, -0.11, -0.02, 0.04, 10.25, 3.95, -14.73, 52.69, 6.07, -0.03, 0.14, -1.00, -8.08, 13.54, 18.93, 0.03, 0.03, -1.01, -7.06, 13.40, 19.05, 0.03, 0.03, -1.01
-179.00, -49.00, 82.00, 0.21, 0.12, -0.17, 10.25, 3.96, 8.13, 39.61, 0.19, -0.03, 0.13, -1.00, -9.46, 14.20, 19.83, 0.03, 0.03, -1.01, -7.86, 13.75, 19.03, 0.03, 0.03, -1.01
255.00, 190.00, -239.00, 0.25, 0.11, -0.03, 10.63, 3.96, 8.68, 46.86, 3.04, -0.03, 0.14, -0.96, -10.14, 15.48, 19.45, 0.03, 0.04, -0.97, -8.62, 14.51, 18.98, 0.03, 0.03, -0.97
255.00, 179.00, -66.00, -0.07, 0.18, 0.08, 10.75, 3.95, 17.74, 48.01, 7.06, -0.02, 0.15, -0.96, -9.17, 17.09, 18.50, 0.02, 0.04, -0.97, -8.91, 15.65, 18.93, 0.02, 0.04, -0.97
-127.00, 248.00, 141.00, 0.24, 0.07, 0.21, 10.50, 3.96, 2.22, 57.25, 13.90, -0.03, 0.14, -0.98, -9.68, 16.62, 18.18, 0.03, 0.04, -0.99, -9.27, 16.06, 18.89, 0.03, 0.04, -0.99
255.00, 127.00, 255.00, 0.10, 0.12, 0.11, 10.38, 3.95, 32.91, 48.76, 6.81, -0.03, 0.13, -1.00, -9.94, 16.67, 18.24, 0.03, 0.02, -1.01, -9.60, 16.31, 18.84, 0.03, 0.02, -1.01
167.00, 191.00, 179.00, -0.22, -0.20, -0.24, 10.63, 3.95, 20.17, 51.40, 10.58, -0.03, 0.13, -1.01, -12.13, 16.45, 17.33, 0.03, 0.03, -1.02, -10.53, 16.37, 18.76, 0.03, 0.03, -1.02
-255.00, -255.00, -255.00, 0.03, 0.13, 0.21, 10.38, 3.94, -6.34, 31.15, -23.82, -0.03, 0.13, -0.98, -12.47, 14.82, 19.83, 0.03, 0.03, -0.99, -11.18, 15.59, 18.77, 0.03, 0.03, -0.99
66.00, 202.00, 255.00, 0.18, 0.04, 0.13, 10.38, 3.94, 16.95, 52.92, 13.37, -0.03, 0.14, -0.96, -12.46, 15.17, 18.99, 0.03, 0.03, -0.97, -11.65, 15.34, 18.75, 0.02, 0.03, -0.97
248.00, 83.00, 202.00, 0.13, -0.05, -0.09, 10.25, 3.95, 28.08, 43.17, 5.67, -0.02, 0.14, -0.96, -13.87, 14.29, 18.84, 0.02, 0.04, -0.97, -12.38, 14.82, 18.73, 0.02, 0.04, -0.97
202.00, -98.00, -154.00, 0.13, -0.17, -0.21, 10.38, 3.96, 16.95, 33.25, -10.60, -0.03, 0.13, -0.98, -13.98, 16.11, 16.57, 0.03, 0.03, -0.99, -13.01, 15.39, 18.62, 0.03, 0.03, -0.99
201.00, -239.00, -255.00, -0.21, 0.14, 0.09, 10.63, 3.95, 14.97, 25.83, -21.35, -0.03, 0.13, -1.01, -16.76, 14.99, 19.71, 0.03, 0.02, -1.02, -14.21, 15.14, 18.59, 0.02, 0.02, -1.02
-255.00, 212.00, 155.00, 0.11, 0.01, 0.15, 10.50, 3.94, -9.16, 54.37, 11.44, -0.03, 0.13, -1.00, -15.45, 12.89, 19.27, 0.03, 0.03, -1.01, -14.66, 14.01, 18.60, 0.03, 0.03, -1.01
180.00, 32.00, 222.00, -0.15, -0.21, 0.21, 10.50, 3.95, 24.76, 40.84, 5.06, -0.03, 0.13, -0.96, -16.22, 13.52, 19.48, 0.03, 0.03, -0.97, -15.17, 13.70, 18.59, 0.03, 0.03, -0.97
-222.00, -255.00, 255.00, 0.23, -0.05, -0.04, 10.75, 3.95, 14.47, 32.67, -14.92, -0.02, 0.13, -0.97, -15.89, 13.11, 19.54, 0.02, 0.03, -0.98, -15.44, 13.34, 18.60, 0.02, 0.03, -0.98
255.00, -98.00, -82.00, -0.06, 0.14, 0.24, 10.75, 3.95, 20.13, 28.94, -6.30, -0.02, 0.13, -0.97, -16.91, 12.10, 19.83, 0.02, 0.02, -0.98, -15.91, 12.68, 18.61, 0.02, 0.02, -0.98
-113.00, 212.00, 255.00, 0.09, 0.20, 0.17, 10.63, 3.96, 0.96, 52.13, 13.34, -0.03, 0.13, -1.01, -17.83, 11.65, 18.99, 0.03, 0.02, -1.02, -16.55, 12.13, 18.59, 0.03, 0.02, -1.02
154.00, 255.00, 240.00, -0.24, 0.18, -0.21, 10.63, 3.95, 15.00, 51.07, 15.48, -0.03, 0.13, -1.00, -16.98, 11.52, 19.54, 0.03, 0.03, -1.01, -16.73, 11.74, 18.61, 0.03, 0.03, -1.01
-255.00, 248.00, -255.00, 0.11, -0.22, 0.15, 10.63, 3.93, -30.85, 50.89, 4.57, -0.03, 0.13, -0.98, -17.99, 9.79, 19.52, 0.03, 0.02, -0.99, -17.14, 10.74, 18.61, 0.03, 0.02, -0.99
180.00, -255.00, 223.00, 0.21, -0.05, 0.16, 10.88, 3.93, 33.75, 23.87, -14.06, -0.03, 0.14, -0.97, -18.16, 10.04, 19.17, 0.03, 0.03, -0.98, -17.49, 10.33, 18.60, 0.03, 0.03, -0.98
255.00, -98.00, 232.00, 0.20, -0.05, 0.18, 10.63, 3.95, 31.72, 29.51, -4.76, -0.02, 0.14, -0.96, -19.02, 9.15, 18.55, 0.02, 0.03, -0.97, -17.99, 9.71, 18.57, 0.02, 0.03, -0.97
255.00, -98.00, 248.00, -0.14, 0.23, -0.24, 10.38, 3.95, 32.33, 30.01, -4.34, -0.03, 0.13, -1.00, -19.10, 9.35, 19.07, 0.03, 0.02, -1.01, -18.36, 9.45, 18.56, 0.03, 0.02, -1.01
-212.00, 255.00, -255.00, 0.03, 0.01, 0.09, 10.75, 3.94, -28.76, 47.37, 6.81, -0.04, 0.13, -1.00, -18.16, 6.92, 20.72, 0.04, 0.03, -1.01, -18.28, 8.14, 18.61, 0.04, 0.03, -1.01
66.00, 32.00, 155.00, 0.04, -0.24, -0.21, 10.38, 3.96, 12.67, 33.16, 7.60, -0.03, 0.14, -1.00, -19.03, 5.97, 20.94, 0.03, 0.03, -1.00, -18.47, 7.00, 18.64, 0.03, 0.03, -1.01
82.00, -255.00, -255.00, 0.20, 0.06, -0.15, 10.50, 3.97, 7.35, 17.23, -21.40, -0.03, 0.14, -0.96, -18.23, 6.11, 19.75, 0.03, 0.04, -0.97, -18.41, 6.48, 18.67, 0.03, 0.04, -0.97
255.00, 113.00, -221.00, -0.18, 0.02, -0.04, 10.63, 3.95, 4.88, 31.53, 0.47, -0.02, 0.14, -0.96, -17.61, 4.27, 19.57, 0.02, 0.03, -0.97, -18.19, 5.35, 18.69, 0.02, 0.03, -0.97
-248.00, 50.00, -82.00, 0.01, 0.22, 0.24, 10.50, 3.96, -17.04, 34.96, 2.16, -0.03, 0.13, -0.97, -19.25, 4.25, 20.04, 0.03, 0.03, -0.98, -18.48, 4.75, 18.69, 0.03, 0.03, -0.98
32.00, 255.00, 255.00, -0.07, -0.16, 0.02, 10.50, 3.96, 8.45, 44.74, 17.10, -0.03, 0.13, -0.99, -17.28, 3.72, 20.33, 0.03, 0.03, -1.00, -18.10, 4.14, 18.73, 0.03, 0.03, -1.00
-127.00, -231.00, 49.00, 0.21, 0.08, 0.10, 10.63, 3.96, 8.97, 19.67, -11.47, -0.02, 0.14, -1.02, -17.26, 4.09, 20.32, 0.02, 0.04, -1.03, -17.83, 4.00, 18.77, 0.02, 0.04, -1.03
255.00, 141.00, 167.00, -0.08, 0.12, 0.21, 10.88, 3.96, 22.96, 34.65, 8.40, -0.04, 0.14, -0.97, -15.67, 3.35, 18.89, 0.04, 0.04, -0.97, -17.23, 3.58, 18.81, 0.04, 0.04, -0.97
-141.00, 190.00, 255.00, -0.20, 0.19, 0.01, 10.88, 3.95, 0.70, 41.06, 12.06, -0.02, 0.14, -0.96, -17.22, 1.29, 18.91, 0.02, 0.04, -0.97, -17.23, 2.45, 18.79, 0.02, 0.04, -0.97
-255.00, 255.00, 32.00, -0.19, -0.05, -0.15, 10.50, 3.95, -16.12, 43.83, 12.47, -0.03, 0.13, -0.96, -15.53, 1.48, 19.35, 0.03, 0.03, -0.97, -16.75, 1.89, 18.82, 0.03, 0.03, -0.97
-255.00, -98.00, -222.00, -0.01, 0.05, 0.08, 10.50, 3.95, -14.26, 22.81, -9.50, -0.03, 0.13, -1.00, -15.85, -0.60, 21.31, 0.03, 0.03, -1.00, -16.41, 0.62, 18.86, 0.03, 0.03, -1.01
-32.00, 98.00, 141.00, -0.17, 0.15, -0.18, 10.75, 3.97, 10.14, 33.47, 10.00, -0.02, 0.14, -1.00, -12.69, 2.04, 19.99, 0.02, 0.03, -1.01, -15.29, 1.14, 18.93, 0.03, 0.03, -1.01
-239.00, 221.00, -247.00, -0.01, -0.06, 0.11, 10.63, 3.96, -23.50, 40.37, 3.36, -0.03, 0.13, -0.99, -12.48, 0.98, 18.73, 0.03, 0.03, -1.00, -14.48, 0.96, 18.97, 0.03, 0.03, -1.00
-32.00, -113.00, 179.00, 0.23, -0.21, -0.16, 10.63, 3.96, 19.80, 22.00, -2.72, -0.02, 0.14, -0.97, -13.12, 0.57, 19.00, 0.02, 0.04, -0.98, -14.10, 0.69, 18.98, 0.02, 0.04, -0.97
255.00, -255.00, -231.00, -0.05, 0.10, 0.11, 10.75, 3.95, 23.98, 10.68, -21.24, -0.03, 0.13, -0.96, -12.38, 1.15, 21.18, 0.03, 0.03, -0.97, -13.56, 0.79, 19.04, 0.03, 0.03, -0.97
-98.00, 167.00, 179.00, -0.04, -0.18, -0.10, 10.75, 3.95, 7.95, 36.13, 14.07, -0.03, 0.13, -0.98, -10.10, -0.32, 21.35, 0.03, 0.03, -0.99, -12.49, 0.15, 19.11, 0.03, 0.03, -0.99
-82.00, -248.00, -167.00, 0.06, -0.04, 0.05, 10.75, 3.96, 9.81, 13.64, -16.85, -0.03, 0.13, -1.00, -9.99, 0.54, 20.47, 0.03, 0.03, -1.01, -11.72, 0.23, 19.16, 0.03, 0.03, -1.01
113.00, -82.00, 98.00, -0.12, 0.01, -0.03, 10.63, 3.98, 28.81, 21.13, -0.50, -0.03, 0.14, -1.00, -7.74, 0.83, 19.87, 0.03, 0.03, -1.01, -10.53, 0.40, 19.22, 0.03, 0.03, -1.00
-190.00, 32.00, -66.00, -0.10, 0.20, -0.11, 10.50, 3.99, -2.50, 29.20, 2.62, -0.03, 0.13, -0.96, -9.42, 0.64, 20.03, 0.03, 0.03, -0.97, -10.20, 0.43, 19.24, 0.03, 0.03, -0.97
-166.00, 255.00, -178.00, 0.02, 0.19, 0.01, 10.13, 3.97, -14.24, 40.43, 9.76, -0.02, 0.13, -0.97, -9.36, 0.86, 19.84, 0.02, 0.03, -0.98, -9.95, 0.56, 19.26, 0.02, 0.03, -0.98
49.00, 255.00, 32.00, -0.01, -0.17, -0.13, 10.50, 3.96, 9.75, 39.30, 15.65, -0.02, 0.13, -0.96, -7.28, 1.70, 19.66, 0.02, 0.03, -0.97, -9.21, 0.99, 19.30, 0.02, 0.03, -0.97
-32.00, -239.00, -201.00, -0.06, -0.13, -0.02, 10.63, 3.97, 14.26, 14.60, -15.83, -0.03, 0.13, -1.00, -6.63, 1.79, 21.79, 0.03, 0.03, -1.01, -8.39, 1.26, 19.36, 0.03, 0.03, -1.01
-113.00, -201.00, -49.00, -0.13, -0.08, -0.01, 10.25, 3.97, 16.33, 18.42, -11.03, -0.04, 0.13, -1.01, -5.25, 2.47, 19.78, 0.04, 0.03, -1.02, -7.46, 1.75, 19.41, 0.04, 0.03, -1.02
-201.00, -141.00, -32.00, 0.15, 0.00, -0.14, 10.50, 3.98, 9.06, 22.58, -7.06, -0.03, 0.13, -0.98, -5.77, 2.15, 20.28, 0.03, 0.03, -0.99, -6.97, 1.87, 19.44, 0.03, 0.03, -0.99
221.00, 0.00, -211.00, -0.22, -0.02, 0.21, 10.63, 3.97, 19.77, 24.96, -1.87, -0.02, 0.13, -0.96, -5.72, 3.15, 21.81, 0.02, 0.03, -0.97, -6.58, 2.38, 19.49, 0.02, 0.03, -0.97
-255.00, -49.00, 255.00, -0.02, 0.12, 0.09, 10.63, 3.96, 16.54, 34.26, -1.23, -0.02, 0.14, -0.95, -3.98, 4.33, 19.41, 0.02, 0.03, -0.96, -5.89, 3.20, 19.51, 0.02, 0.03, -0.96
-49.00, 191.00, 154.00, 0.23, 0.10, 0.04, 10.38, 3.96, 14.67, 41.68, 12.60, -0.03, 0.13, -1.00, -4.28, 5.00, 18.56, 0.03, 0.03, -1.01, -5.49, 3.99, 19.51, 0.03, 0.03, -1.01
255.00, 167.00, 82.00, -0.13, -0.15, -0.11, 10.38, 3.97, 31.47, 36.41, 9.18, -0.03, 0.13, -0.99, -2.53, 4.91, 18.99, 0.03, 0.03, -1.00, -4.68, 4.36, 19.52, 0.03, 0.03, -1.00
-201.00, -221.00, -179.00, 0.13, -0.07, -0.11, 10.50, 3.95, 8.24, 22.49, -19.09, -0.03, 0.13, -1.01, -3.13, 6.11, 17.91, 0.03, 0.03, -1.02, -4.31, 5.16, 19.51, 0.04, 0.03, -1.02
202.00, -127.00, -179.00, -0.24, -0.21, -0.05, 10.63, 3.95, 26.56, 23.97, -10.84, -0.03, 0.13, -0.99, -4.36, 8.18, 18.96, 0.03, 0.03, -1.00, -4.40, 6.54, 19.49, 0.03, 0.03, -1.00
-255.00, -255.00, -98.00, 0.13, 0.17, 0.25, 10.75, 3.95, 8.89, 23.46, -17.23, -0.03, 0.14, -0.94, -4.10, 7.16, 21.07, 0.03, 0.03, -0.95, -4.33, 6.77, 19.51, 0.03, 0.03, -0.95
202.00, 240.00, 255.00, -0.19, -0.19, 0.05, 10.88, 3.94, 32.65, 46.49, 12.86, -0.03, 0.14, -0.98, -3.10, 7.89, 18.27, 0.03, 0.03, -0.99, -4.07, 7.26, 19.50, 0.03, 0.04, -0.98
-255.00, -255.00, 98.00, -0.06, 0.05, -0.22, 10.75, 3.94, 19.22, 26.69, -16.65, -0.03, 0.14, -1.00, -2.47, 8.87, 18.56, 0.03, 0.03, -1.01, -3.69, 7.98, 19.49, 0.03, 0.03, -1.01
-113.00, 98.00, -255.00, -0.13, -0.24, -0.04, 10.50, 3.95, -2.53, 41.14, 0.44, -0.03, 0.13, -0.99, -3.14, 10.74, 19.73, 0.03, 0.03, -1.00, -3.60, 9.22, 19.48, 0.03, 0.03, -1.00
-202.00, -255.00, -82.00, 0.21, 0.17, 0.16, 10.63, 3.96, 12.42, 25.64, -16.22, -0.03, 0.14, -1.01, -4.41, 10.57, 20.77, 0.03, 0.04, -1.02, -3.89, 9.82, 19.49, 0.03, 0.04, -1.02
255.00, 240.00, 231.00, 0.00, -0.10, -0.07, 10.63, 3.94, 33.22, 49.44, 12.60, -0.03, 0.14, -0.96, -4.50, 11.87, 19.04, 0.03, 0.03, -0.97, -4.16, 10.75, 19.45, 0.03, 0.03, -0.97
0.00, -167.00, -128.00, -0.16, -0.21, -0.08, 10.38, 3.96, 18.68, 26.31, -10.41, -0.03, 0.13, -0.97, -4.61, 10.51, 19.06, 0.03, 0.03, -0.98, -4.38, 10.63, 19.44, 0.03, 0.03, -0.98
-231.00, -255.00, -141.00, 0.00, 0.09, -0.08, 10.25, 3.96, 8.86, 27.70, -20.55, -0.02, 0.14, -0.99, -3.65, 12.14, 18.61, 0.02, 0.04, -1.00, -4.27, 11.31, 19.41, 0.02, 0.04, -1.00
0.00, 154.00, -141.00, -0.17, -0.16, 0.20, 10.25, 3.97, 6.04, 44.05, 7.75, -0.03, 0.13, -0.98, -3.96, 12.23, 19.58, 0.03, 0.03, -0.99, -4.27, 11.70, 19.41, 0.03, 0.03, -0.99
-239.00, -231.00, 255.00, -0.18, -0.11, 0.16, 10.63, 3.95, 21.92, 34.35, -12.83, -0.03, 0.14, -1.02, -6.62, 13.38, 20.11, 0.03, 0.04, -1.03, -5.06, 12.48, 19.38, 0.03, 0.04, -1.04
-248.00, -179.00, 231.00, 0.25, 0.21, 0.08, 10.50, 3.94, 17.85, 37.94, -10.45, -0.03, 0.13, -0.93, -7.19, 14.84, 18.42, 0.03, 0.03, -0.94, -5.79, 13.56, 19.30, 0.03, 0.02, -0.94
255.00, 255.00, 142.00, -0.18, 0.25, -0.01, 10.63, 3.94, 26.41, 51.51, 12.50, -0.02, 0.14, -0.98, -7.04, 14.62, 18.35, 0.02, 0.03, -0.99, -6.27, 14.04, 19.25, 0.02, 0.03, -0.99
-248.00, 255.00, -32.00, 0.25, -0.21, -0.10, 10.25, 3.95, -10.73, 56.47, 10.29, -0.02, 0.14, -0.97, -7.77, 14.83, 18.06, 0.02, 0.04, -0.98, -6.84, 14.39, 19.20, 0.02, 0.04, -0.98
255.00, -255.00, -167.00, 0.15, -0.10, -0.22, 10.63, 3.94, 28.78, 25.64, -20.52, -0.02, 0.13, -0.98, -10.36, 16.12, 19.46, 0.02, 0.02, -0.99, -7.97, 15.17, 19.13, 0.02, 0.02, -0.99
222.00, -167.00, -255.00, -0.01, 0.19, -0.13, 10.63, 3.94, 20.90, 29.90, -14.26, -0.03, 0.14, -1.02, -9.29, 15.97, 21.56, 0.03, 0.03, -1.03, -8.41, 15.48, 19.16, 0.03, 0.03, -1.03
-32.00, 255.00, -202.00, -0.15, 0.23, -0.05, 10.75, 3.95, -9.43, 53.46, 9.79, -0.03, 0.14, -0.97, -11.43, 15.96, 19.48, 0.03, 0.03, -0.98, -9.40, 15.67, 19.11, 0.03, 0.03, -0.98
-222.00, 255.00, -98.00, 0.02, -0.22, 0.09, 10.88, 3.95, -15.55, 57.10, 10.13, -0.03, 0.13, -0.96, -11.10, 16.32, 18.69, 0.03, 0.03, -0.97, -10.01, 15.94, 19.06, 0.03, 0.03, -0.97
50.00, -255.00, 155.00, -0.20, 0.24, 0.15, 10.63, 3.96, 29.25, 30.05, -12.32, -0.02, 0.14, -0.97, -12.70, 16.35, 19.97, 0.02, 0.04, -0.98, -10.88, 16.08, 19.04, 0.02, 0.04, -0.98
-255.00, 255.00, 222.00, -0.09, -0.14, -0.22, 10.50, 3.95, -4.95, 59.72, 12.42, -0.03, 0.13, -0.97, -12.64, 14.79, 18.47, 0.03, 0.03, -0.98, -11.51, 15.45, 19.01, 0.03, 0.03, -0.98
-155.00, -212.00, -255.00, 0.23, -0.08, -0.02, 10.63, 3.94, -2.88, 30.84, -18.04, -0.04, 0.14, -1.02, -13.34, 14.78, 20.39, 0.04, 0.03, -1.03, -12.12, 15.07, 19.02, 0.03, 0.03, -1.03
255.00, -142.00, -50.00, 0.09, 0.04, 0.06, 10.63, 3.95, 25.04, 31.61, -10.70, -0.03, 0.14, -0.99, -15.20, 16.74, 17.70, 0.03, 0.03, -1.00, -13.19, 15.82, 18.91, 0.02, 0.03, -1.00
154.00, 82.00, 113.00, 0.21, 0.21, -0.07, 10.50, 3.97, 16.94, 41.80, 7.86, -0.03, 0.14, -0.96, -15.97, 13.39, 19.55, 0.03, 0.03, -0.97, -14.07, 14.64, 18.89, 0.03, 0.03, -0.97
255.00, 255.00, -127.00, 0.25, -0.05, 0.02, 10.50, 3.96, 6.20, 50.18, 8.58, -0.02, 0.14, -0.97, -15.39, 15.36, 18.37, 0.02, 0.03, -0.98, -14.57, 14.92, 18.84, 0.02, 0.03, -0.98
255.00, -98.00, 49.00, 0.05, 0.04, 0.12, 10.50, 3.96, 27.80, 32.80, -3.58, -0.02, 0.14, -0.97, -15.15, 15.12, 20.43, 0.02, 0.03, -0.98, -14.80, 14.91, 18.87, 0.02, 0.03, -0.98
98.00, 82.00, 191.00, 0.09, 0.00, 0.24, 10.75, 3.97, 17.83, 44.11, 9.43, -0.03, 0.13, -0.99, -15.29, 14.03, 20.36, 0.03, 0.03, -1.00, -15.00, 14.40, 18.90, 0.03, 0.03, -1.00
154.00, 0.00, 255.00, 0.14, -0.18, -0.11, 10.88, 3.97, 26.45, 39.64, 4.53, -0.03, 0.14, -1.01, -15.85, 13.02, 20.34, 0.03, 0.03, -1.02, -15.30, 13.65, 18.93, 0.03, 0.03, -1.02
211.00, -247.00, -179.00, 0.18, 0.17, -0.05, 10.38, 3.95, 18.49, 24.00, -18.85, -0.03, 0.14, -0.96, -17.44, 13.75, 20.06, 0.03, 0.03, -0.97, -15.98, 13.61, 18.91, 0.03, 0.03, -0.97
248.00, 240.00, -98.00, 0.16, -0.08, 0.24, 10.75, 3.95, 5.00, 46.95, 9.87, -0.03, 0.13, -0.99, -17.97, 12.83, 19.34, 0.03, 0.02, -1.00, -16.64, 13.18, 18.89, 0.03, 0.02, -1.00
231.00, -141.00, 255.00, -0.11, -0.07, -0.07, 10.38, 3.95, 32.86, 29.87, -5.01, -0.02, 0.14, -0.95, -19.20, 10.85, 20.73, 0.02, 0.04, -0.96, -17.39, 12.01, 18.90, 0.01, 0.04, -0.96
-179.00, -128.00, -128.00, 0.17, 0.24, 0.24, 10.38, 3.96, -6.42, 30.94, -9.31, -0.03, 0.14, -0.97, -17.80, 10.72, 18.98, 0.03, 0.03, -0.98, -17.59, 11.33, 18.89, 0.03, 0.03, -0.98
240.00, 255.00, 255.00, 0.12, -0.02, -0.17, 10.88, 3.95, 18.53, 49.18, 12.74, -0.03, 0.14, -1.02, -18.88, 10.13, 18.26, 0.03, 0.03, -1.03, -18.06, 10.69, 18.85, 0.03, 0.03, -1.03
191.00, -50.00, -240.00, 0.01, 0.20, 0.00, 10.50, 3.95, 5.61, 28.91, -8.02, -0.04, 0.13, -0.98, -18.92, 9.21, 19.08, 0.04, 0.03, -0.99, -18.38, 9.91, 18.84, 0.04, 0.03, -0.99
32.00, 255.00, 0.00, 0.23, 0.09, -0.06, 10.63, 3.97, -4.24, 46.07, 15.29, -0.03, 0.14, -0.96, -18.84, 8.54, 19.65, 0.03, 0.04, -0.97, -18.54, 9.17, 18.85, 0.03, 0.04, -0.97
255.00, 154.00, -113.00, 0.23, 0.16, 0.14, 10.25, 3.97, 6.11, 36.83, 6.99, -0.03, 0.14, -0.97, -19.66, 7.37, 20.69, 0.03, 0.03, -0.98, -18.86, 8.23, 18.87, 0.03, 0.03, -0.98
255.00, 231.00, 212.00, -0.10, 0.21, 0.17, 10.50, 3.95, 19.04, 43.36, 13.68, -0.03, 0.13, -0.96, -18.21, 6.61, 20.46, 0.03, 0.03, -0.97, -18.68, 7.36, 18.91, 0.03, 0.03, -0.97
-167.00, 255.00, 240.00, 0.03, -0.07, 0.08, 10.63, 3.94, -5.64, 49.42, 13.81, -0.03, 0.13, -1.01, -19.28, 6.16, 18.41, 0.03, 0.03, -1.02, -18.92, 6.72, 18.88, 0.03, 0.03, -1.02
66.00, -128.00, 142.00, -0.09, -0.14, 0.01, 10.38, 3.96, 20.30, 23.55, -3.46, -0.03, 0.13, -0.99, -17.27, 4.43, 19.40, 0.02, 0.03, -1.00, -18.45, 5.53, 18.91, 0.03, 0.03, -1.00
-154.00, -212.00, 32.00, 0.11, -0.10, -0.03, 10.75, 3.98, 5.17, 22.04, -11.05, -0.03, 0.13, -0.97, -18.02, 5.33, 19.81, 0.03, 0.03, -0.98, -18.34, 5.32, 18.93, 0.03, 0.03, -0.98
178.00, -166.00, -66.00, -0.18, -0.21, 0.16, 10.50, 3.97, 19.22, 17.86, -9.60, -0.02, 0.14, -0.97, -17.01, 3.50, 19.48, 0.02, 0.04, -0.98, -17.97, 4.38, 18.95, 0.02, 0.04, -0.97
-247.00, -255.00, 230.00, 0.24, 0.20, -0.15, 10.75, 3.95, 11.36, 23.46, -15.26, -0.03, 0.13, -0.94, -16.49, 3.80, 19.62, 0.03, 0.02, -0.95, -17.57, 4.00, 18.98, 0.03, 0.03, -0.95
255.00, 255.00, -222.00, -0.19, -0.01, 0.03, 10.38, 3.93, 1.55, 37.90, 5.74, -0.03, 0.14, -1.00, -15.88, 3.22, 18.85, 0.03, 0.03, -1.01, -17.11, 3.54, 19.00, 0.03, 0.03, -1.00
-255.00, -32.00, 67.00, 0.06, 0.06, -0.06, 10.50, 3.95, -3.05, 29.83, -0.82, -0.03, 0.13, -0.99, -14.80, 2.00, 19.24, 0.03, 0.03, -1.00, -16.45, 2.71, 19.03, 0.03, 0.03, -1.00
113.00, 113.00, -113.00, -0.16, -0.04, 0.22, 10.63, 3.98, 4.65, 29.74, 6.69, -0.03, 0.13, -0.98, -14.58, 1.05, 19.88, 0.03, 0.03, -0.99, -15.89, 1.83, 19.06, 0.03, 0.03, -0.99
-230.00, -82.00, 255.00, -0.23, 0.19, -0.08, 10.50, 3.96, 9.85, 28.92, -2.62, -0.03, 0.14, -0.97, -13.49, 1.23, 19.55, 0.03, 0.03, -0.98, -15.20, 1.44, 19.10, 0.03, 0.03, -0.98
-255.00, 255.00, -141.00, 0.14, -0.01, 0.07, 10.63, 3.95, -21.89, 42.65, 8.29, -0.02, 0.13, -0.94, -13.64, 1.18, 18.70, 0.02, 0.03, -0.95, -14.80, 1.23, 19.11, 0.02, 0.03, -0.95
212.00, -32.00, 128.00, -0.22, 0.10, 0.07, 10.88, 3.96, 30.55, 22.83, 2.18, -0.02, 0.13, -0.95, -10.82, 0.57, 20.77, 0.02, 0.03, -0.96, -13.67, 0.80, 19.17, 0.03, 0.03, -0.96
-255.00, 167.00, 127.00, -0.12, 0.24, -0.23, 10.50, 3.96, -4.93, 40.56, 9.50, -0.03, 0.13, -0.98, -11.45, 1.72, 19.21, 0.03, 0.03, -0.99, -13.05, 1.13, 19.20, 0.03, 0.03, -0.99
-190.00, 255.00, -255.00, 0.15, 0.24, -0.13, 10.38, 3.95, -21.09, 40.60, 6.12, -0.03, 0.14, -0.96, -11.67, 0.57, 19.66, 0.03, 0.03, -0.97, -12.66, 0.79, 19.23, 0.03, 0.03, -0.97
222.00, 255.00, -202.00, 0.10, -0.01, -0.16, 10.50, 3.93, 5.61, 35.75, 8.45, -0.03, 0.14, -0.98, -10.84, 0.74, 20.06, 0.03, 0.03, -0.99, -12.12, 0.67, 19.26, 0.03, 0.03, -0.99
168.00, -32.00, -232.00, -0.08, 0.19, 0.04, 10.50, 3.95, 12.44, 20.83, -5.26, -0.02, 0.13, -0.98, -10.43, 0.07, 20.15, 0.02, 0.03, -0.99, -11.62, 0.31, 19.29, 0.02, 0.03, -0.99
-141.00, 255.00, 82.00, 0.00, 0.13, 0.05, 10.63, 3.96, -0.26, 41.58, 13.90, -0.02, 0.14, -0.89, -8.50, 1.06, 18.34, 0.02, 0.04, -0.90, -10.86, 0.55, 19.30, 0.02, 0.04, -0.90
0.00, 201.00, 98.00, -0.09, -0.03, -0.07, 10.50, 3.97, 10.04, 37.17, 12.92, -0.03, 0.14, -0.93, -8.91, 1.23, 18.47, 0.03, 0.03, -0.94, -10.39, 0.79, 19.31, 0.03, 0.03, -0.94
-154.00, -66.00, -127.00, -0.17, 0.11, -0.19, 10.13, 3.98, 4.30, 24.66, -5.70, -0.03, 0.14, -0.98, -6.04, 1.96, 18.35, 0.03, 0.03, -0.99, -9.23, 1.23, 19.34, 0.03, 0.03, -0.99
-239.00, 178.00, -254.00, 0.18, 0.24, -0.20, 10.63, 3.96, -15.87, 36.52, 3.46, -0.03, 0.12, -0.97, -6.06, -0.60, 20.96, 0.03, 0.02, -0.98, -8.30, 0.30, 19.39, 0.03, 0.02, -0.98
248.00, 255.00, -255.00, 0.17, -0.10, 0.04, 10.25, 3.93, 9.06, 36.85, 4.84, -0.03, 0.13, -0.94, -6.54, 2.01, 19.20, 0.03, 0.03, -0.95, -7.85, 1.01, 19.41, 0.03, 0.03, -0.95
241.00, -168.00, 83.00, -0.16, -0.19, -0.07, 10.50, 3.95, 42.41, 18.49, -9.05, -0.02, 0.11, -0.97, -3.87, 3.55, 19.05, 0.02, 0.01, -0.98, -6.78, 2.08, 19.43, 0.02, 0.01, -0.98
-231.00, -255.00, -128.00, -0.01, 0.01, -0.23, 10.13, 3.95, 7.42, 18.63, -19.80, -0.04, 0.21, -1.25, -5.70, 3.04, 18.92, 0.04, 0.10, -1.26, -6.41, 2.53, 19.46, 0.04, 0.10, -1.26
-32.00, 32.00, -255.00, 0.02, -0.09, 0.13, 10.88, 3.96, 3.48, 29.60, -1.40, -0.01, 0.08, -0.71, -4.37, 3.64, 20.50, 0.01, -0.02, -0.72, -6.01, 2.92, 19.46, 0.01, -0.02, -0.72
49.00, -154.00, 202.00, 0.25, 0.00, -0.08, 10.63, 3.97, 36.80, 22.23, -3.36, -0.07, 0.13, -1.13, -3.45, 3.22, 21.15, 0.07, 0.03, -1.14, -5.13, 2.99, 19.54, 0.07, 0.03, -1.14
255.00, 0.00, -141.00, 0.25, -0.14, -0.21, 10.50, 3.97, 26.63, 26.31, -2.53, -0.00, 0.17, -1.03, -3.92, 4.86, 19.48, 0.00, 0.07, -1.04, -4.81, 3.85, 19.56, 0.00, 0.07, -1.04
255.00, -212.00, -255.00, -0.01, -0.16, -0.21, 10.50, 3.95, 28.82, 17.14, -20.56, -0.05, 0.09, -0.83, -4.94, 5.64, 19.42, 0.05, -0.02, -0.84, -4.89, 4.60, 19.53, 0.05, -0.02, -0.84
-32.00, -231.00, -255.00, -0.22, -0.19, -0.15, 10.63, 3.94, 14.13, 18.55, -19.06, 0.00, 0.17, -1.11, -4.08, 5.11, 19.77, -0.00, 0.07, -1.12, -4.65, 4.81, 19.54, -0.00, 0.07, -1.11
-255.00, -255.00, -222.00, -0.18, 0.13, -0.17, 10.88, 3.94, 4.85, 22.62, -22.32, -0.04, 0.12, -0.94, -2.69, 6.35, 19.84, 0.04, 0.01, -0.95, -4.16, 5.46, 19.56, 0.04, 0.01, -0.95
-248.00, 202.00, -240.00, -0.21, 0.08, 0.10, 10.63, 3.93, -13.15, 44.88, 3.83, -0.02, 0.13, -0.96, -2.90, 6.44, 19.84, 0.02, 0.03, -0.97, -3.84, 5.86, 19.57, 0.02, 0.03, -0.97
-255.00, 142.00, 168.00, 0.13, -0.14, 0.18, 10.38, 3.95, 5.36, 44.24, 9.05, -0.04, 0.14, -1.08, -3.99, 6.23, 19.86, 0.04, 0.04, -1.09, -3.92, 6.02, 19.57, 0.04, 0.04, -1.09
202.00, -212.00, 248.00, -0.04, -0.13, 0.12, 10.38, 3.95, 49.27, 25.36, -11.36, -0.02, 0.13, -0.87, -3.57, 9.45, 19.03, 0.02, 0.02, -0.88, -3.92, 7.53, 19.54, 0.02, 0.02, -0.88
-82.00, -202.00, 191.00, -0.23, 0.24, 0.23, 10.38, 3.95, 30.15, 28.35, -9.40, -0.03, 0.13, -1.00, -3.82, 10.23, 18.95, 0.03, 0.03, -1.01, -3.97, 8.73, 19.51, 0.03, 0.03, -1.01
-255.00, 255.00, 255.00, 0.01, 0.17, -0.06, 10.63, 3.94, 5.69, 55.00, 11.27, -0.02, 0.15, -1.01, -3.39, 9.45, 17.41, 0.02, 0.05, -1.02, -3.93, 9.06, 19.48, 0.02, 0.05, -1.02
32.00, 240.00, -113.00, 0.06, 0.02, -0.09, 10.75, 3.95, 3.96, 47.08, 11.55, -0.04, 0.12, -0.94, -6.14, 10.99, 18.91, 0.04, 0.02, -0.95, -4.64, 9.94, 19.41, 0.04, 0.02, -0.95
113.00, 50.00, -155.00, 0.09, -0.20, 0.20, 10.63, 3.98, 15.16, 37.12, 1.29, -0.03, 0.15, -1.05, -4.69, 11.79, 18.84, 0.03, 0.05, -1.06, -4.75, 10.79, 19.39, 0.03, 0.05, -1.06
154.00, -255.00, 255.00, -0.19, -0.04, 0.18, 10.38, 3.96, 45.56, 26.94, -15.54, -0.03, 0.14, -0.94, -6.57, 12.39, 17.71, 0.03, 0.04, -0.95, -5.40, 11.53, 19.32, 0.03, 0.04, -0.95
-255.00, -82.00, 248.00, -0.02, -0.21, -0.23, 10.38, 3.94, 15.48, 40.78, -6.11, -0.02, 0.13, -0.95, -6.10, 12.64, 16.51, 0.02, 0.02, -0.96, -5.75, 12.05, 19.24, 0.02, 0.02, -0.96
-50.00, -255.00, -255.00, -0.01, 0.04, 0.16, 10.63, 3.95, 10.82, 26.48, -22.41, -0.03, 0.14, -1.01, -7.23, 13.92, 18.57, 0.03, 0.04, -1.02, -6.30, 12.90, 19.20, 0.03, 0.04, -1.02
-32.00, 82.00, 231.00, -0.04, 0.18, -0.07, 10.38, 3.96, 20.02, 45.10, 9.59, -0.03, 0.13, -0.97, -7.32, 13.03, 20.42, 0.03, 0.02, -0.98, -6.66, 12.91, 19.20, 0.03, 0.02, -0.98
-82.00, 248.00, -127.00, -0.22, 0.16, 0.08, 10.50, 3.97, -6.58, 53.08, 10.63, -0.03, 0.14, -1.01, -9.13, 15.22, 18.43, 0.03, 0.03, -1.02, -7.53, 13.98, 19.13, 0.03, 0.03, -1.02
-255.00, 231.00, 141.00, 0.01, -0.15, 0.18, 11.13, 3.95, -1.68, 56.50, 11.88, -0.03, 0.14, -1.00, -6.59, 14.09, 18.78, 0.03, 0.04, -1.00, -7.36, 13.98, 19.12, 0.03, 0.04, -1.00
32.00, -222.00, 248.00, -0.02, 0.18, -0.13, 10.38, 3.95, 35.19, 32.52, -11.49, -0.03, 0.13, -0.93, -8.45, 15.54, 18.15, 0.03, 0.03, -0.94, -7.80, 14.67, 19.06, 0.03, 0.03, -0.94
-50.00, 248.00, -202.00, -0.12, 0.20, -0.08, 10.50, 3.95, -10.03, 52.81, 8.96, -0.03, 0.14, -0.97, -11.20, 15.46, 19.06, 0.02, 0.04, -0.98, -8.87, 15.01, 19.00, 0.02, 0.04, -0.98
-191.00, 255.00, -141.00, 0.01, 0.00, 0.10, 10.38, 3.95, -16.84, 55.58, 9.62, -0.03, 0.14, -0.97, -12.29, 15.58, 18.93, 0.03, 0.04, -0.98, -9.96, 15.25, 18.94, 0.02, 0.04, -0.98
32.00, 0.00, 167.00, -0.18, 0.05, -0.01, 10.63, 3.97, 19.75, 41.92, 4.52, -0.04, 0.13, -1.02, -11.84, 15.82, 19.38, 0.04, 0.02, -1.03, -10.62, 15.47, 18.91, 0.03, 0.02, -1.03
-247.00, 98.00, -32.00, -0.17, -0.08, -0.08, 10.63, 3.98, -8.05, 48.45, 3.04, -0.03, 0.14, -1.02, -10.49, 14.95, 17.47, 0.03, 0.03, -1.03, -10.73, 15.19, 18.87, 0.03, 0.03, -1.03
-239.00, -140.00, -140.00, 0.18, 0.03, 0.07, 10.50, 3.97, -4.74, 36.71, -13.30, -0.03, 0.13, -0.95, -12.48, 15.77, 17.29, 0.03, 0.03, -0.96, -11.38, 15.43, 18.79, 0.03, 0.03, -0.96
247.00, 66.00, 127.00, 0.00, 0.10, 0.12, 10.63, 3.96, 24.79, 41.82, 5.80, -0.03, 0.14, -0.98, -14.58, 14.95, 19.84, 0.03, 0.03, -0.99, -12.38, 15.16, 18.77, 0.02, 0.03, -0.99
0.00, 167.00, 190.00, -0.07, 0.18, 0.24, 10.63, 3.97, 9.50, 49.53, 12.98, -0.03, 0.14, -0.99, -14.67, 14.02, 19.61, 0.03, 0.03, -1.00, -13.13, 14.57, 18.76, 0.03, 0.03, -1.00
-127.00, 247.00, 255.00, 0.24, -0.17, -0.21, 10.75, 3.95, 0.73, 57.15, 13.62, -0.03, 0.14, -0.99, -16.11, 14.63, 18.10, 0.03, 0.03, -1.00, -14.13, 14.56, 18.69, 0.03, 0.03, -1.00
255.00, -240.00, -255.00, -0.04, -0.10, -0.04, 10.75, 3.93, 18.71, 25.62, -22.89, -0.04, 0.13, -1.02, -16.03, 15.31, 19.26, 0.04, 0.03, -1.03, -14.80, 14.84, 18.65, 0.03, 0.03, -1.03
-83.00, -168.00, -83.00, -0.13, -0.19, 0.06, 10.38, 3.95, 3.27, 31.48, -8.89, -0.03, 0.14, -0.98, -17.29, 14.59, 19.88, 0.03, 0.03, -0.99, -15.60, 14.64, 18.64, 0.03, 0.03, -0.99
-202.00, -255.00, 113.00, 0.15, 0.04, -0.21, 10.38, 3.96, 7.99, 31.34, -14.78, -0.03, 0.14, -0.96, -17.53, 14.68, 19.60, 0.03, 0.03, -0.97, -16.23, 14.57, 18.63, 0.03, 0.03, -0.97
222.00, 82.00, -255.00, -0.07, -0.09, -0.19, 10.50, 3.95, 3.80, 40.21, -2.22, -0.02, 0.14, -0.97, -16.55, 14.13, 19.08, 0.02, 0.04, -0.98, -16.40, 14.28, 18.63, 0.02, 0.04, -0.98
-127.00, -155.00, -255.00, -0.14, -0.19, -0.21, 10.38, 3.95, -7.91, 30.24, -15.45, -0.03, 0.14, -0.98, -17.79, 12.13, 18.61, 0.03, 0.03, -0.99, -16.90, 13.21, 18.61, 0.03, 0.03, -0.99
-212.00, -255.00, -255.00, -0.20, -0.13, 0.15, 10.38, 3.94, -9.43, 27.16, -24.22, -0.04, 0.14, -1.01, -18.09, 11.87, 18.63, 0.04, 0.03, -1.02, -17.34, 12.50, 18.59, 0.04, 0.03, -1.02
-255.00, -202.00, 222.00, -0.05, 0.07, -0.20, 10.63, 3.93, 6.31, 33.10, -12.86, -0.04, 0.13, -1.00, -18.79, 11.04, 17.84, 0.04, 0.03, -1.01, -17.88, 11.74, 18.54, 0.03, 0.03, -1.01
-98.00, 128.00, -255.00, 0.10, 0.12, 0.11, 10.75, 3.95, -18.06, 40.44, 3.61, -0.03, 0.14, -0.96, -18.42, 8.69, 21.31, 0.03, 0.04, -0.97, -18.01, 10.20, 18.60, 0.03, 0.04, -0.97
167.00, 191.00, 179.00, -0.08, 0.21, -0.09, 10.63, 3.96, 13.83, 44.43, 13.04, -0.02, 0.13, -0.97, -18.52, 9.45, 19.78, 0.02, 0.03, -0.98, -18.19, 9.75, 18.61, 0.02, 0.02, -0.98
-141.00, 255.00, -154.00, 0.03, 0.02, 0.10, 10.13, 3.95, -21.91, 47.87, 8.40, -0.03, 0.14, -0.98, -19.73, 8.84, 17.46, 0.03, 0.04, -0.99, -18.73, 9.27, 18.56, 0.03, 0.04, -0.99
66.00, 49.00, 167.00, -0.24, 0.05, -0.22, 10.75, 3.97, 14.76, 36.67, 5.86, -0.04, 0.13, -1.00, -16.79, 8.39, 18.21, 0.04, 0.02, -1.01, -18.23, 8.75, 18.58, 0.04, 0.03, -1.00
-255.00, 98.00, -255.00, -0.15, -0.23, -0.04, 10.63, 3.96, -25.40, 41.06, -2.29, -0.03, 0.14, -1.01, -17.55, 7.71, 19.17, 0.03, 0.04, -1.02, -18.06, 8.15, 18.60, 0.03, 0.04, -1.02
-222.00, -255.00, -82.00, 0.21, -0.21, 0.23, 10.75, 3.95, -3.16, 22.60, -17.76, -0.03, 0.14, -0.98, -18.83, 7.02, 19.45, 0.03, 0.03, -0.98, -18.31, 7.52, 18.60, 0.03, 0.03, -0.99
255.00, -255.00, 255.00, -0.23, -0.06, -0.11, 10.38, 3.94, 38.48, 20.32, -15.78, -0.02, 0.14, -0.96, -19.03, 6.65, 19.09, 0.02, 0.03, -0.97, -18.55, 7.03, 18.59, 0.02, 0.03, -0.97
-255.00, -113.00, -180.00, 0.09, -0.13, 0.06, 10.63, 3.94, -14.44, 26.94, -12.44, -0.02, 0.14, -0.97, -18.55, 4.26, 17.65, 0.02, 0.03, -0.98, -18.61, 5.68, 18.56, 0.02, 0.03, -0.98
155.00, -202.00, 113.00, -0.04, -0.09, 0.05, 10.63, 3.96, 24.52, 18.99, -11.50, -0.03, 0.13, -0.99, -19.66, 4.48, 17.58, 0.03, 0.03, -1.00, -18.97, 5.05, 18.51, 0.03, 0.03, -1.00
-82.00, -154.00, 98.00, 0.17, 0.01, -0.07, 10.75, 3.98, 9.53, 22.52, -7.42, -0.04, 0.14, -1.00, -18.62, 3.59, 17.71, 0.04, 0.03, -1.01, -18.92, 4.28, 18.50, 0.04, 0.03, -1.01
239.00, 32.00, -127.00, 0.19, 0.23, -0.17, 10.63, 3.98, 12.20, 26.50, -0.22, -0.03, 0.14, -0.99, -16.80, 3.24, 19.33, 0.03, 0.04, -1.00, -18.29, 3.66, 18.54, 0.03, 0.04, -1.00
255.00, 255.00, -239.00, -0.04, 0.22, -0.08, 10.63, 3.95, 0.35, 37.21, 4.78, -0.03, 0.14, -0.96, -16.29, 2.41, 18.51, 0.03, 0.04, -0.97, -17.75, 2.97, 18.56, 0.03, 0.04, -0.97
-82.00, 255.00, -141.00, 0.22, 0.13, 0.23, 10.50, 3.95, -14.66, 40.91, 9.87, -0.03, 0.14, -0.96, -16.54, 2.80, 17.87, 0.03, 0.03, -0.97, -17.45, 2.80, 18.55, 0.03, 0.03, -0.97
255.00, 202.00, 255.00, -0.23, -0.05, 0.19, 10.63, 3.95, 25.30, 36.98, 9.87, -0.03, 0.14, -0.98, -14.75, 0.93, 17.93, 0.03, 0.03, -0.99, -16.71, 1.84, 18.57, 0.03, 0.03, -0.99
-255.00, -98.00, 255.00, 0.08, 0.04, 0.23, 10.50, 3.94, 9.22, 27.42, -2.21, -0.03, 0.14, -1.00, -13.28, -0.09, 21.41, 0.03, 0.03, -1.01, -15.61, 0.79, 18.66, 0.03, 0.03, -1.01
142.00, 83.00, 255.00, 0.22, 0.11, -0.10, 10.75, 3.95, 25.05, 32.46, 9.19, -0.03, 0.15, -1.00, -13.11, 1.54, 20.62, 0.03, 0.04, -1.01, -14.82, 1.01, 18.73, 0.03, 0.04, -1.01
255.00, 179.00, -167.00, 0.23, -0.22, -0.15, 10.50, 3.95, 9.37, 32.91, 4.40, -0.03, 0.14, -0.97, -13.05, 2.22, 18.59, 0.03, 0.04, -0.98, -14.34, 1.47, 18.76, 0.03, 0.04, -0.98
255.00, -255.00, -222.00, 0.21, 0.03, -0.22, 10.38, 3.94, 24.10, 10.82, -22.11, -0.02, 0.14, -0.97, -12.61, 1.25, 19.88, 0.02, 0.03, -0.97, -13.83, 1.27, 18.79, 0.03, 0.03, -0.97
255.00, 66.00, -255.00, -0.03, -0.11, 0.16, 10.75, 3.94, 12.50, 25.04, -2.38, -0.03, 0.14, -0.97, -10.31, 0.10, 20.31, 0.03, 0.03, -0.98, -12.79, 0.62, 18.85, 0.03, 0.03, -0.98
-66.00, -180.00, 232.00, -0.07, 0.12, -0.01, 10.50, 3.95, 25.53, 19.07, -6.23, -0.03, 0.14, -0.99, -10.27, -0.58, 20.41, 0.03, 0.03, -1.00, -12.01, -0.04, 18.90, 0.03, 0.03, -1.00
-127.00, 191.00, -32.00, 0.12, -0.07, -0.23, 10.13, 3.97, -2.48, 36.47, 11.60, -0.03, 0.14, -1.01, -8.66, 0.62, 20.09, 0.03, 0.03, -1.02, -10.98, 0.16, 18.96, 0.03, 0.03, -1.02
190.00, -127.00, -255.00, 0.16, 0.03, 0.07, 10.63, 3.96, 17.09, 17.87, -13.40, -0.03, 0.13, -0.99, -9.82, 1.87, 19.27, 0.03, 0.03, -1.00, -10.65, 0.88, 18.99, 0.03, 0.03, -1.00
231.00, 66.00, 127.00, 0.12, -0.07, 0.01, 10.75, 3.96, 30.01, 27.49, 5.03, -0.03, 0.14, -0.96, -8.45, 0.44, 18.67, 0.03, 0.04, -0.97, -10.05, 0.61, 19.00, 0.03, 0.04, -0.97
190.00, -127.00, 32.00, 0.23, -0.06, 0.14, 10.75, 3.97, 33.50, 19.09, -6.24, -0.03, 0.14, -0.96, -6.26, 2.32, 18.60, 0.03, 0.04, -0.97, -9.02, 1.30, 19.05, 0.03, 0.04, -0.97
255.00, -112.00, 211.00, 0.05, 0.01, 0.25, 10.63, 3.96, 43.66, 21.19, -3.70, -0.02, 0.13, -0.98, -6.95, 1.93, 20.53, 0.02, 0.02, -0.99, -8.41, 1.50, 19.09, 0.03, 0.02, -0.99
98.00, 32.00, 255.00, -0.03, 0.15, -0.20, 10.50, 3.96, 31.70, 30.17, 6.97, -0.03, 0.13, -1.00, -6.06, 1.47, 20.57, 0.03, 0.03, -1.01, -7.68, 1.40, 19.13, 0.03, 0.03, -1.01
-66.00, 222.00, -255.00, 0.06, -0.23, 0.08, 10.38, 3.96, -6.74, 38.78, 5.76, -0.03, 0.14, -0.99, -5.47, 2.47, 19.16, 0.03, 0.04, -1.00, -7.05, 1.84, 19.16, 0.03, 0.04, -1.00
113.00, -255.00, 141.00, -0.01, 0.15, -0.05, 10.38, 3.95, 39.11, 16.46, -14.02, -0.03, 0.14, -0.96, -5.76, 3.49, 18.60, 0.03, 0.03, -0.97, -6.73, 2.55, 19.17, 0.03, 0.03, -0.97
-32.00, 222.00, -98.00, -0.14, 0.16, 0.18, 10.38, 3.97, 3.73, 39.75, 10.57, -0.02, 0.13, -0.96, -3.89, 3.84, 18.33, 0.02, 0.03, -0.97, -5.99, 3.08, 19.18, 0.02, 0.03, -0.97
-212.00, 231.00, 247.00, -0.12, 0.23, -0.20, 10.75, 3.95, 8.27, 47.22, 12.13, -0.03, 0.13, -0.97, -3.75, 4.06, 18.38, 0.03, 0.03, -0.98, -5.41, 3.48, 19.19, 0.03, 0.03, -0.98
-191.00, 255.00, -255.00, 0.10, -0.07, 0.23, 10.75, 3.93, -12.89, 44.30, 5.13, -0.03, 0.14, -1.00, -3.58, 4.33, 18.70, 0.03, 0.03, -1.01, -4.93, 3.83, 19.20, 0.03, 0.04, -1.01
168.00, -128.00, 255.00, -0.07, -0.08, 0.12, 10.25, 3.95, 41.86, 25.86, -6.90, -0.03, 0.14, -1.00, -6.17, 5.64, 16.94, 0.03, 0.03, -1.01, -5.40, 4.68, 19.15, 0.03, 0.03, -1.01
-128.00, -141.00, 191.00, -0.09, 0.23, -0.16, 10.50, 3.96, 24.44, 28.15, -7.04, -0.03, 0.13, -0.98, -4.54, 6.53, 17.34, 0.03, 0.03, -0.99, -5.25, 5.51, 19.13, 0.03, 0.03, -0.99
-154.00, 255.00, -231.00, -0.07, -0.09, -0.13, 10.63, 3.95, -8.99, 45.69, 7.07, -0.03, 0.14, -0.96, -2.61, 6.35, 19.00, 0.03, 0.03, -0.97, -4.56, 5.84, 19.15, 0.03, 0.03, -0.97
-127.00, -154.00, -202.00, 0.16, -0.04, -0.24, 10.63, 3.95, 8.24, 26.48, -12.41, -0.03, 0.13, -0.96, -3.91, 8.42, 19.35, 0.03, 0.03, -0.97, -4.44, 6.97, 19.14, 0.03, 0.03, -0.97
231.00, -82.00, -255.00, -0.24, 0.10, 0.11, 10.75, 3.95, 23.44, 25.33, -9.94, -0.03, 0.14, -0.98, -3.96, 7.53, 20.48, 0.03, 0.03, -0.99, -4.32, 7.18, 19.17, 0.03, 0.03, -0.99
-255.00, 167.00, 179.00, 0.11, 0.03, 0.06, 10.50, 3.95, 6.05, 48.26, 8.75, -0.03, 0.14, -1.00, -2.84, 8.76, 18.43, 0.03, 0.03, -1.01, -3.97, 7.88, 19.16, 0.03, 0.03, -1.01
179.00, 66.00, 113.00, 0.07, 0.05, -0.01, 10.50, 3.96, 32.65, 38.09, 5.76, -0.03, 0.14, -0.99, -2.27, 10.74, 18.60, 0.03, 0.03, -1.00, -3.57, 9.17, 19.15, 0.03, 0.03, -1.00
127.00, 98.00, -32.00, 0.18, -0.12, 0.09, 10.25, 3.99, 20.83, 39.62, 6.18, -0.04, 0.14, -0.97, -3.48, 11.52, 18.50, 0.04, 0.04, -0.98, -3.65, 10.24, 19.13, 0.04, 0.04, -0.98
247.00, -190.00, 153.00, 0.14, 0.14, -0.06, 11.00, 3.97, 44.71, 26.47, -10.77, -0.02, 0.13, -0.96, -6.00, 11.72, 18.74, 0.02, 0.03, -0.97, -4.40, 10.92, 19.08, 0.02, 0.03, -0.97
212.00, 212.00, -113.00, 0.01, -0.18, -0.08, 10.25, 3.95, 16.91, 45.72, 7.72, -0.03, 0.13, -0.97, -4.35, 12.77, 18.06, 0.03, 0.03, -0.98, -4.51, 11.75, 19.04, 0.03, 0.03, -0.98
32.00, -248.00, -141.00, 0.04, -0.20, 0.07, 10.38, 3.96, 23.21, 24.33, -18.01, -0.02, 0.14, -1.00, -4.35, 12.56, 18.18, 0.02, 0.03, -1.01, -4.57, 12.11, 19.01, 0.02, 0.03, -1.01
82.00, -255.00, 127.00, 0.11, 0.13, -0.16, 10.75, 3.96, 35.69, 26.35, -15.19, -0.04, 0.14, -1.00, -6.89, 13.36, 17.34, 0.04, 0.04, -1.01, -5.41, 12.71, 18.94, 0.03, 0.04, -1.01
179.00, 201.00, -231.00, 0.20, -0.11, 0.18, 10.38, 3.95, 7.22, 45.94, 3.29, -0.02, 0.14, -0.99, -7.32, 13.27, 17.51, 0.02, 0.04, -1.00, -6.11, 12.98, 18.87, 0.02, 0.04, -1.00
255.00, -179.00, 248.00, -0.15, -0.24, -0.12, 10.13, 3.94, 45.51, 32.45, -10.93, -0.02, 0.14, -0.97, -9.01, 15.56, 18.00, 0.02, 0.03, -0.98, -7.07, 14.16, 18.79, 0.02, 0.03, -0.98
-222.00, -255.00, -191.00, 0.25, -0.01, -0.17, 10.38, 3.94, 4.14, 30.91, -21.06, -0.03, 0.14, -0.96, -6.75, 15.48, 19.30, 0.03, 0.03, -0.97, -7.08, 14.71, 18.79, 0.03, 0.03, -0.97
255.00, -32.00, -240.00, -0.16, -0.07, 0.04, 10.50, 3.95, 19.26, 35.12, -7.69, -0.03, 0.14, -0.99, -8.13, 15.18, 19.62, 0.03, 0.03, -1.00, -7.47, 14.88, 18.79, 0.03, 0.03, -1.00
-231.00, -128.00, 82.00, 0.15, 0.20, 0.22, 10.50, 3.96, 10.77, 37.45, -6.49, -0.03, 0.14, -1.01, -6.90, 14.71, 18.99, 0.03, 0.04, -1.02, -7.39, 14.75, 18.79, 0.03, 0.04, -1.02
222.00, 255.00, 255.00, 0.17, 0.12, 0.06, 10.50, 3.95, 27.43, 54.76, 11.72, -0.02, 0.14, -1.00, -8.99, 15.56, 16.95, 0.02, 0.03, -1.01, -8.04, 15.13, 18.71, 0.02, 0.03, -1.01
240.00, 191.00, 113.00, 0.04, 0.10, -0.04, 10.38, 3.94, 22.81, 50.51, 10.35, -0.02, 0.14, -0.97, -10.72, 17.29, 18.67, 0.02, 0.04, -0.98, -8.94, 16.10, 18.65, 0.02, 0.04, -0.98
83.00, 167.00, -83.00, -0.14, 0.11, 0.11, 10.75, 3.97, 4.94, 48.73, 8.84, -0.03, 0.14, -0.97, -11.91, 16.85, 18.66, 0.03, 0.04, -0.98, -9.91, 16.41, 18.59, 0.03, 0.04, -0.98
-212.00, 179.00, 179.00, -0.05, 0.21, 0.13, 10.25, 3.97, 0.34, 56.14, 9.03, -0.02, 0.14, -0.96, -10.58, 16.93, 17.37, 0.02, 0.04, -0.97, -10.25, 16.62, 18.54, 0.02, 0.04, -0.97
-98.00, 255.00, 201.00, 0.02, -0.19, 0.07, 10.63, 3.95, 4.75, 57.28, 13.15, -0.04, 0.13, -1.01, -11.20, 15.78, 16.78, 0.03, 0.03, -1.02, -10.70, 16.21, 18.48, 0.03, 0.03, -1.02
49.00, -255.00, 127.00, -0.08, -0.14, -0.14, 10.50, 3.96, 25.69, 28.82, -13.65, -0.03, 0.14, -1.00, -14.98, 15.53, 18.76, 0.03, 0.04, -1.01, -12.09, 15.86, 18.41, 0.03, 0.03, -1.01
-141.00, -212.00, -212.00, 0.07, 0.24, 0.19, 10.63, 3.96, -0.86, 30.80, -17.67, -0.03, 0.14, -0.98, -13.94, 15.15, 18.97, 0.03, 0.03, -0.99, -12.73, 15.47, 18.40, 0.03, 0.03, -0.99
127.00, 255.00, 255.00, 0.05, 0.16, 0.18, 10.75, 3.95, 15.19, 54.82, 13.29, -0.03, 0.14, -0.96, -15.89, 14.73, 17.07, 0.03, 0.03, -0.97, -13.78, 15.11, 18.30, 0.03, 0.03, -0.97
98.00, 231.00, 248.00, 0.07, 0.25, 0.03, 10.25, 3.95, 15.58, 52.86, 13.49, -0.03, 0.14, -0.95, -14.39, 13.98, 18.07, 0.03, 0.04, -0.96, -14.05, 14.53, 18.29, 0.03, 0.04, -0.96
128.00, 255.00, 66.00, 0.15, 0.18, 0.07, 10.50, 3.95, 7.53, 51.13, 13.21, -0.02, 0.14, -1.00, -15.51, 13.94, 17.41, 0.02, 0.03, -1.01, -14.60, 14.21, 18.24, 0.02, 0.03, -1.01
222.00, 248.00, 127.00, 0.18, 0.23, 0.03, 10.75, 3.95, 15.20, 50.54, 13.21, -0.03, 0.13, -1.00, -16.02, 13.83, 18.62, 0.03, 0.03, -1.01, -15.11, 13.96, 18.22, 0.03, 0.03, -1.01
248.00, 255.00, 66.00, -0.16, 0.17, -0.03, 10.50, 3.95, 12.73, 49.52, 12.60, -0.03, 0.13, -1.00, -17.04, 13.50, 18.76, 0.03, 0.03, -1.01, -15.77, 13.67, 18.20, 0.03, 0.03, -1.01
-231.00, 240.00, -66.00, -0.14, 0.18, 0.16, 10.63, 3.95, -21.79, 51.78, 10.80, -0.03, 0.14, -0.97, -18.75, 11.48, 19.44, 0.03, 0.04, -0.98, -16.68, 12.57, 18.18, 0.03, 0.04, -0.98
-212.00, 248.00, 231.00, -0.07, 0.25, -0.16, 10.63, 3.94, -7.04, 55.01, 12.44, -0.02, 0.14, -0.95, -17.88, 11.35, 17.98, 0.02, 0.04, -0.96, -17.10, 11.94, 18.16, 0.02, 0.04, -0.96
-128.00, 255.00, -232.00, -0.05, -0.14, -0.06, 11.00, 3.94, -24.33, 49.65, 6.80, -0.03, 0.15, -0.97, -19.56, 10.82, 18.43, 0.03, 0.05, -0.97, -17.86, 11.36, 18.11, 0.03, 0.05, -0.98
-98.00, -213.00, -113.00, -0.18, -0.16, 0.13, 10.25, 3.96, 2.51, 25.02, -13.83, -0.03, 0.13, -1.00, -17.52, 10.07, 19.21, 0.03, 0.02, -1.01, -17.80, 10.64, 18.14, 0.03, 0.02, -1.01
-248.00, -231.00, 202.00, 0.09, -0.06, 0.13, 10.50, 3.95, 7.09, 29.64, -12.50, -0.03, 0.13, -1.00, -18.67, 9.43, 20.41, 0.03, 0.02, -1.01, -18.05, 9.95, 18.18, 0.03, 0.02, -1.01
155.00, -113.00, 202.00, 0.08, -0.18, -0.12, 10.50, 3.95, 23.60, 28.33, -5.36, -0.03, 0.14, -0.98, -20.89, 8.28, 17.11, 0.03, 0.03, -0.99, -18.98, 9.11, 18.10, 0.03, 0.03, -0.99
141.00, -248.00, -191.00, 0.04, -0.01, 0.10, 10.63, 3.96, 12.22, 18.69, -20.39, -0.03, 0.14, -0.96, -19.29, 7.88, 18.06, 0.03, 0.03, -0.97, -19.12, 8.45, 18.09, 0.03, 0.03, -0.97
82.00, -32.00, 167.00, 0.04, -0.09, 0.14, 10.75, 3.97, 16.56, 31.76, 0.73, -0.03, 0.13, -0.97, -19.16, 7.72, 17.55, 0.03, 0.03, -0.98, -19.20, 8.03, 18.07, 0.03, 0.03, -0.98
82.00, -154.00, 212.00, -0.19, -0.22, 0.19, 10.63, 3.97, 23.19, 26.79, -7.07, -0.03, 0.14, -0.99, -19.38, 7.90, 17.59, 0.03, 0.03, -1.00, -19.32, 7.87, 18.05, 0.03, 0.03, -1.00
-255.00, -255.00, 255.00, -0.16, -0.09, -0.23, 10.38, 3.94, 10.22, 25.93, -14.94, -0.03, 0.13, -1.00, -18.20, 5.58, 20.20, 0.03, 0.03, -1.01, -18.96, 6.66, 18.11, 0.03, 0.03, -1.01
-232.00, -155.00, -255.00, -0.23, -0.08, -0.18, 10.75, 3.93, -13.90, 25.55, -16.50, -0.03, 0.14, -1.00, -17.75, 5.27, 18.90, 0.03, 0.03, -1.00, -18.61, 5.89, 18.14, 0.03, 0.03, -1.00
-255.00, -142.00, -249.00, -0.16, -0.22, 0.06, 10.75, 3.94, -14.16, 25.59, -15.68, -0.03, 0.14, -0.96, -16.35, 4.17, 19.06, 0.03, 0.04, -0.97, -17.97, 4.97, 18.18, 0.03, 0.04, -0.97
-232.00, -255.00, 113.00, -0.11, -0.11, 0.12, 11.00, 3.94, 7.45, 21.13, -15.26, -0.02, 0.13, -0.96, -16.23, 3.68, 19.36, 0.02, 0.03, -0.97, -17.48, 4.26, 18.22, 0.02, 0.03, -0.97
-180.00, -180.00, 191.00, 0.10, 0.18, 0.04, 10.50, 3.95, 11.18, 24.22, -7.28, -0.03, 0.14, -0.98, -16.24, 3.45, 20.54, 0.03, 0.03, -0.99, -17.08, 3.76, 18.28, 0.03, 0.03, -0.99
167.00, 248.00, 82.00, -0.14, -0.04, 0.16, 10.38, 3.96, 11.75, 39.97, 15.46, -0.03, 0.14, -0.99, -14.43, 3.32, 20.29, 0.03, 0.03, -1.00, -16.27, 3.42, 18.35, 0.03, 0.03, -1.00
-212.00, -82.00, 231.00, 0.02, 0.02, -0.21, 10.63, 3.96, 8.49, 27.10, -1.89, -0.03, 0.14, -1.00, -14.91, 0.30, 19.87, 0.03, 0.04, -1.01, -15.82, 1.85, 18.37, 0.03, 0.04, -1.01
49.00, 49.00, -255.00, -0.03, -0.05, -0.05, 10.63, 3.96, -3.14, 27.11, -1.32, -0.03, 0.14, -0.98, -14.96, 1.14, 19.73, 0.03, 0.03, -0.99, -15.54, 1.41, 18.40, 0.03, 0.03, -0.99
-66.00, -98.00, -98.00, -0.10, 0.25, -0.21, 10.13, 3.98, 3.42, 20.55, -3.45, -0.03, 0.14, -0.97, -14.69, 0.71, 20.93, 0.03, 0.04, -0.98, -15.22, 0.97, 18.45, 0.03, 0.04, -0.98
-166.00, 255.00, -255.00, 0.20, 0.14, -0.14, 10.63, 3.96, -20.89, 40.31, 7.41, -0.03, 0.13, -0.97, -12.69, 0.66, 20.52, 0.03, 0.03, -0.98, -14.45, 0.70, 18.51, 0.03, 0.03, -0.98
255.00, 212.00, -212.00, -0.24, -0.23, 0.15, 10.50, 3.94, 5.88, 34.57, 5.96, -0.03, 0.13, -0.99, -13.40, 2.15, 20.39, 0.03, 0.03, -1.00, -14.10, 1.26, 18.56, 0.03, 0.03, -1.00
-255.00, -255.00, 223.00, -0.13, 0.19, -0.11, 10.50, 3.93, 15.48, 19.94, -14.19, -0.03, 0.13, -1.01, -11.57, 0.18, 20.73, 0.03, 0.03, -1.02, -13.28, 0.64, 18.63, 0.03, 0.03, -1.02
-202.00, 255.00, -180.00, -0.17, -0.17, -0.19, 10.38, 3.94, -15.99, 40.53, 7.29, -0.03, 0.14, -0.99, -9.24, 0.40, 18.01, 0.03, 0.03, -1.00, -12.12, 0.42, 18.66, 0.03, 0.03, -1.00
-240.00, -240.00, -255.00, 0.16, -0.07, 0.16, 10.75, 3.93, -3.13, 16.33, -21.24, -0.03, 0.14, -0.97, -9.66, -0.32, 20.75, 0.03, 0.03, -0.98, -11.36, -0.03, 18.72, 0.03, 0.03, -0.98
232.00, -128.00, 232.00, -0.02, 0.20, 0.01, 10.63, 3.94, 40.40, 20.36, -6.26, -0.02, 0.13, -0.96, -10.16, 1.18, 18.54, 0.02, 0.03, -0.97, -11.04, 0.45, 18.73, 0.02, 0.03, -0.97
-50.00, 255.00, 32.00, 0.17, -0.08, -0.14, 10.50, 3.96, 1.99, 39.45, 15.49, -0.03, 0.13, -0.98, -9.33, 0.77, 19.58, 0.03, 0.03, -0.99, -10.53, 0.51, 18.76, 0.03, 0.03, -0.99
239.00, -141.00, -212.00, 0.07, 0.25, -0.23, 10.88, 3.96, 24.70, 16.11, -12.61, -0.02, 0.14, -0.99, -7.39, 1.31, 20.05, 0.02, 0.03, -1.00, -9.59, 0.78, 18.81, 0.03, 0.03, -1.00
127.00, 255.00, -255.00, -0.24, -0.14, -0.13, 10.88, 3.95, 2.44, 37.02, 5.98, -0.03, 0.13, -1.00, -6.30, 0.95, 18.27, 0.03, 0.03, -1.01, -8.65, 0.78, 18.85, 0.04, 0.03, -1.01
-255.00, -212.00, -202.00, -0.23, -0.14, 0.23, 10.63, 3.94, 0.38, 19.57, -17.95, -0.03, 0.14, -0.97, -6.54, 1.44, 19.99, 0.03, 0.04, -0.98, -8.03, 1.00, 18.89, 0.03, 0.04, -0.98
-255.00, -213.00, 255.00, -0.23, -0.13, -0.13, 10.88, 3.93, 21.35, 23.98, -10.61, -0.02, 0.13, -0.95, -5.51, 1.75, 20.98, 0.02, 0.02, -0.96, -7.29, 1.25, 18.94, 0.03, 0.02, -0.96
-255.00, -202.00, -202.00, 0.18, -0.22, 0.18, 10.88, 3.93, 0.76, 20.23, -16.50, -0.02, 0.14, -0.97, -5.81, 1.62, 20.58, 0.02, 0.04, -0.98, -6.84, 1.35, 18.98, 0.02, 0.04, -0.98
249.00, -255.00, 249.00, -0.08, -0.04, -0.10, 10.75, 3.93, 51.29, 16.72, -14.86, -0.03, 0.14, -0.98, -5.56, 3.07, 19.74, 0.03, 0.04, -0.99, -6.48, 2.08, 19.01, 0.03, 0.04, -0.99
-142.00, -83.00, -168.00, -0.13, 0.07, -0.19, 10.75, 3.95, 5.12, 24.44, -7.42, -0.05, 0.13, -1.02, -4.89, 2.75, 18.56, 0.05, 0.02, -1.03, -6.04, 2.35, 19.02, 0.05, 0.02, -1.03
-202.00, 127.00, -255.00, 0.20, 0.20, -0.23, 10.88, 3.96, -8.80, 36.76, 1.05, -0.03, 0.14, -1.00, -3.01, 3.16, 20.14, 0.03, 0.03, -1.01, -5.14, 2.65, 19.07, 0.03, 0.03, -1.01
255.00, 255.00, -255.00, 0.13, -0.13, 0.17, 10.88, 3.93, 11.47, 39.77, 4.87, -0.03, 0.14, -0.95, -4.48, 4.96, 19.25, 0.03, 0.04, -0.96, -4.99, 3.67, 19.08, 0.03, 0.04, -0.96
202.00, -202.00, 241.00, 0.20, -0.10, -0.05, 10.38, 3.93, 47.02, 21.35, -11.30, -0.02, 0.13, -0.96, -5.00, 5.09, 18.22, 0.02, 0.03, -0.97, -5.05, 4.29, 19.07, 0.02, 0.03, -0.97
255.00, -168.00, -98.00, 0.03, 0.01, 0.03, 10.63, 3.95, 34.41, 20.67, -14.10, -0.03, 0.13, -0.99, -4.67, 7.19, 17.19, 0.03, 0.03, -1.00, -5.05, 5.60, 19.03, 0.03, 0.03, -1.00
66.00, 32.00, 66.00, -0.24, 0.12, -0.10, 10.63, 3.98, 24.69, 32.97, 5.31, -0.04, 0.14, -1.02, -3.12, 6.91, 19.08, 0.04, 0.03, -1.03, -4.52, 6.16, 19.05, 0.04, 0.03, -1.03
-255.00, 190.00, -166.00, 0.07, -0.02, -0.02, 10.63, 3.97, -9.38, 43.45, 4.62, -0.04, 0.14, -0.99, -1.98, 5.36, 18.50, 0.04, 0.03, -1.00, -3.83, 5.75, 19.07, 0.04, 0.03, -1.00
127.00, -49.00, -49.00, -0.05, 0.23, -0.24, 10.75, 3.97, 25.07, 28.92, -0.07, -0.03, 0.13, -0.98, -4.35, 8.39, 20.28, 0.03, 0.03, -0.99, -4.01, 6.94, 19.07, 0.03, 0.03, -0.99
-98.00, 255.00, -255.00, -0.08, 0.21, -0.02, 10.88, 3.96, -8.94, 46.87, 6.85, -0.03, 0.13, -0.97, -4.66, 8.31, 19.11, 0.03, 0.03, -0.98, -4.26, 7.55, 19.06, 0.03, 0.03, -0.98
-141.00, 255.00, -49.00, 0.20, -0.11, 0.07, 10.63, 3.95, -3.22, 49.44, 12.19, -0.03, 0.13, -0.95, -5.69, 10.07, 18.45, 0.03, 0.03, -0.96, -4.74, 8.69, 19.02, 0.03, 0.03, -0.96
255.00, -179.00, 127.00, -0.24, 0.10, -0.20, 10.63, 3.96, 46.46, 26.50, -9.62, -0.03, 0.13, -1.00, -3.10, 11.73, 19.45, 0.03, 0.03, -1.01, -4.33, 10.03, 19.02, 0.03, 0.03, -1.01
-255.00, 167.00, -255.00, 0.04, -0.07, -0.22, 10.50, 3.95, -15.16, 47.38, 1.11, -0.03, 0.14, -1.00, -4.93, 10.51, 19.46, 0.03, 0.03, -1.01, -4.57, 10.23, 19.01, 0.03, 0.03, -1.01
82.00, -128.00, -255.00, 0.06, -0.01, 0.02, 10.63, 3.95, 16.31, 26.66, -10.14, -0.04, 0.13, -0.99, -4.52, 9.70, 21.33, 0.04, 0.03, -1.00, -4.56, 9.92, 19.05, 0.04, 0.03, -1.00
113.00, -32.00, 50.00, -0.08, 0.01, -0.24, 10.63, 3.98, 25.37, 34.03, 1.45, -0.03, 0.14, -0.97, -7.01, 11.78, 19.20, 0.03, 0.04, -0.97, -5.34, 10.77, 19.01, 0.03, 0.04, -0.98
-140.00, 32.00, -255.00, 0.13, 0.12, 0.23, 10.75, 3.98, -3.76, 39.94, -3.08, -0.03, 0.13, -0.96, -5.21, 12.44, 19.78, 0.03, 0.03, -0.97, -5.37, 11.49, 19.01, 0.03, 0.03, -0.97
201.00, 190.00, 255.00, 0.19, -0.20, 0.20, 10.63, 3.95, 31.35, 49.30, 10.54, -0.03, 0.13, -0.98, -6.15, 13.30, 18.00, 0.03, 0.03, -0.99, -5.72, 12.30, 18.96, 0.03, 0.03, -0.99
255.00, -255.00, 255.00, 0.25, 0.24, 0.01, 10.75, 3.93, 49.20, 27.84, -15.19, -0.03, 0.13, -1.01, -8.17, 14.12, 19.55, 0.03, 0.03, -1.02, -6.53, 13.13, 18.92, 0.03, 0.03, -1.02
255.00, 255.00, 32.00, -0.04, 0.20, -0.14, 10.88, 3.94, 19.70, 50.80, 11.41, -0.03, 0.14, -0.99, -8.91, 15.21, 18.04, 0.03, 0.04, -1.00, -7.36, 14.09, 18.85, 0.02, 0.04, -1.00
-83.00, 255.00, -213.00, -0.18, 0.08, -0.13, 10.63, 3.95, -9.76, 51.90, 7.83, -0.03, 0.14, -0.98, -8.35, 13.74, 18.28, 0.03, 0.03, -0.99, -7.77, 13.90, 18.82, 0.03, 0.03, -0.99
-248.00, 141.00, -202.00, 0.23, 0.19, -0.15, 10.88, 3.95, -14.22, 48.51, 1.75, -0.03, 0.14, -0.96, -7.62, 13.24, 18.86, 0.03, 0.03, -0.97, -7.82, 13.56, 18.82, 0.03, 0.03, -0.97
255.00, 255.00, -222.00, 0.08, 0.08, 0.22, 10.75, 3.94, 7.64, 49.88, 4.75, -0.03, 0.13, -0.97, -9.75, 15.15, 17.77, 0.03, 0.03, -0.98, -8.50, 14.27, 18.75, 0.03, 0.03, -0.98
142.00, 142.00, 255.00, 0.01, 0.16, -0.16, 10.63, 3.94, 24.95, 47.81, 9.92, -0.03, 0.14, -1.00, -10.91, 13.86, 18.67, 0.03, 0.03, -1.01, -9.31, 14.06, 18.71, 0.03, 0.03, -1.01
32.00, 232.00, -232.00, 0.04, -0.16, -0.04, 10.75, 3.95, -6.42, 51.08, 7.59, -0.03, 0.13, -1.00, -11.48, 15.41, 19.30, 0.03, 0.02, -1.01, -10.05, 14.65, 18.67, 0.03, 0.02, -1.01
82.00, -231.00, -82.00, 0.24, -0.13, 0.18, 10.88, 3.96, 19.53, 28.00, -14.60, -0.03, 0.13, -0.99, -12.89, 15.75, 18.69, 0.03, 0.03, -1.00, -11.00, 15.13, 18.61, 0.03, 0.03, -1.00
255.00, -201.00, 248.00, -0.20, -0.12, -0.23, 10.88, 3.95, 42.11, 32.01, -12.67, -0.03, 0.14, -0.97, -13.32, 16.12, 17.85, 0.03, 0.03, -0.98, -11.81, 15.55, 18.54, 0.03, 0.03, -0.98
-255.00, -191.00, -255.00, 0.23, -0.19, 0.01, 10.50, 3.93, -9.30, 34.38, -19.31, -0.03, 0.13, -0.96, -13.17, 15.19, 19.18, 0.03, 0.03, -0.97, -12.28, 15.32, 18.53, 0.03, 0.03, -0.97
255.00, -255.00, 32.00, 0.24, -0.01, -0.08, 10.50, 3.94, 33.00, 25.69, -16.56, -0.03, 0.13, -0.98, -14.98, 15.30, 19.10, 0.03, 0.03, -0.99, -13.16, 15.26, 18.50, 0.02, 0.03, -0.99
255.00, -32.00, -141.00, 0.20, -0.13, -0.07, 10.63, 3.95, 15.04, 34.29, -3.89, -0.04, 0.13, -1.01, -16.73, 14.39, 19.80, 0.04, 0.03, -1.02, -14.29, 14.79, 18.47, 0.03, 0.02, -1.02
255.00, -202.00, -127.00, -0.18, 0.09, -0.24, 10.88, 3.95, 23.33, 26.13, -15.39, -0.03, 0.13, -0.99, -15.77, 14.31, 19.26, 0.03, 0.03, -1.00, -14.81, 14.48, 18.47, 0.03, 0.03, -1.00
-248.00, 154.00, -255.00, 0.10, -0.11, 0.16, 11.00, 3.94, -24.61, 49.85, -1.33, -0.03, 0.14, -0.97, -15.32, 13.85, 17.41, 0.03, 0.03, -0.98, -15.09, 14.13, 18.43, 0.03, 0.03, -0.98
167.00, -180.00, 232.00, -0.17, -0.09, -0.24, 10.63, 3.95, 31.60, 29.38, -9.19, -0.02, 0.14, -0.97, -17.38, 11.98, 18.07, 0.02, 0.04, -0.98, -15.84, 13.09, 18.39, 0.02, 0.04, -0.98
-240.00, -155.00, -255.00, -0.21, 0.06, 0.19, 10.63, 3.95, -14.69, 32.71, -16.46, -0.02, 0.13, -0.97, -17.97, 12.27, 19.22, 0.02, 0.03, -0.98, -16.51, 12.63, 18.37, 0.02, 0.03, -0.98
-255.00, 113.00, 255.00, -0.02, -0.03, 0.10, 11.00, 3.94, -2.22, 49.04, 6.99, -0.03, 0.13, -1.00, -16.32, 10.94, 19.12, 0.03, 0.03, -1.01, -16.51, 11.75, 18.40, 0.03, 0.03, -1.01
-50.00, -66.00, 167.00, -0.21, -0.16, 0.08, 10.75, 3.96, 10.82, 35.84, -1.17, -0.04, 0.14, -1.00, -18.67, 12.11, 17.66, 0.04, 0.03, -1.01, -17.26, 11.86, 18.33, 0.04, 0.03, -1.01
-255.00, -231.00, 141.00, -0.02, 0.09, -0.13, 10.88, 3.96, 3.76, 29.29, -14.92, -0.03, 0.14, -0.98, -18.95, 9.88, 18.20, 0.03, 0.03, -0.99, -17.83, 10.86, 18.29, 0.03, 0.03, -0.99
-49.00, 154.00, -202.00, -0.07, 0.10, 0.22, 10.63, 3.96, -12.98, 41.20, 4.81, -0.03, 0.14, -0.97, -17.46, 8.84, 18.83, 0.03, 0.03, -0.98, -17.77, 9.83, 18.31, 0.03, 0.03, -0.98
-127.00, 167.00, 255.00, 0.22, -0.02, 0.16, 10.88, 3.96, 1.68, 45.47, 12.32, -0.02, 0.13, -0.95, -17.89, 7.13, 19.98, 0.02, 0.03, -0.96, -17.81, 8.48, 18.34, 0.02, 0.03, -0.96
255.00, -49.00, 231.00, 0.23, 0.15, 0.12, 10.50, 3.95, 30.17, 31.39, -0.48, -0.03, 0.13, -1.00, -18.63, 8.69, 19.86, 0.03, 0.03, -1.01, -18.06, 8.47, 18.36, 0.03, 0.03, -1.01
255.00, 222.00, 191.00, 0.17, -0.12, -0.05, 10.63, 3.94, 18.30, 43.35, 12.15, -0.03, 0.14, -1.00, -18.34, 7.46, 19.26, 0.03, 0.03, -1.01, -18.17, 7.89, 18.37, 0.03, 0.03, -1.01
240.00, -191.00, -98.00, -0.16, 0.23, 0.04, 11.13, 3.95, 19.95, 20.91, -14.66, -0.04, 0.13, -0.99, -19.09, 8.27, 17.86, 0.04, 0.03, -1.00, -18.51, 7.99, 18.33, 0.04, 0.03, -1.00
-231.00, 255.00, 82.00, -0.24, -0.21, 0.15, 10.63, 3.95, -14.15, 48.32, 13.11, -0.03, 0.14, -0.97, -17.18, 6.05, 19.01, 0.03, 0.03, -0.98, -18.15, 6.97, 18.36, 0.03, 0.03, -0.98
-255.00, -255.00, 222.00, 0.19, 0.03, 0.04, 10.88, 3.94, 10.14, 24.74, -14.32, -0.02, 0.14, -0.95, -16.85, 5.00, 20.58, 0.02, 0.03, -0.96, -17.76, 5.94, 18.41, 0.02, 0.03, -0.96
255.00, 66.00, 83.00, 0.22, 0.19, 0.06, 10.75, 3.95, 20.33, 32.18, 5.35, -0.03, 0.14, -0.97, -17.46, 5.95, 19.78, 0.03, 0.03, -0.98, -17.68, 5.83, 18.44, 0.03, 0.03, -0.98
255.00, 255.00, 113.00, -0.15, -0.11, -0.23, 10.75, 3.95, 14.98, 41.17, 12.95, -0.03, 0.13, -1.00, -17.24, 4.64, 18.86, 0.03, 0.03, -1.01, -17.57, 5.17, 18.45, 0.03, 0.03, -1.01
-222.00, -179.00, -255.00, 0.17, 0.13, 0.22, 11.00, 3.94, -11.47, 21.47, -17.52, -0.03, 0.14, -1.00, -16.75, 2.54, 19.45, 0.03, 0.03, -1.01, -17.31, 3.83, 18.47, 0.03, 0.03, -1.01
240.00, 202.00, 255.00, -0.20, 0.17, -0.11, 10.50, 3.94, 22.83, 39.75, 10.70, -0.04, 0.14, -0.98, -16.32, 3.59, 18.46, 0.04, 0.04, -0.99, -17.05, 3.61, 18.48, 0.04, 0.04, -0.99
-255.00, 240.00, -180.00, 0.09, 0.08, 0.09, 10.75, 3.93, -24.93, 42.37, 6.52, -0.03, 0.13, -1.14, -15.61, 1.82, 18.84, 0.03, 0.03, -1.15, -16.55, 2.62, 18.50, 0.03, 0.03, -1.15
155.00, 142.00, 155.00, 0.06, -0.02, 0.06, 10.75, 3.95, 16.54, 34.93, 11.30, -0.01, 0.14, -0.92, -15.88, 2.85, 20.12, 0.01, 0.04, -0.93, -16.34, 2.61, 18.53, 0.01, 0.04, -0.93
113.00, -49.00, 113.00, 0.18, 0.04, -0.14, 10.75, 3.98, 18.65, 23.91, 0.35, -0.06, 0.10, -0.97, -17.24, 1.78, 18.59, 0.06, -0.00, -0.98, -16.61, 2.16, 18.51, 0.06, -0.00, -0.98
247.00, 82.00, -211.00, 0.20, -0.01, -0.21, 10.25, 3.97, 10.83, 25.71, 0.29, -0.01, 0.17, -1.09, -12.88, -0.01, 20.36, 0.01, 0.06, -1.10, -15.34, 0.98, 18.55, 0.01, 0.07, -1.09
255.00, -32.00, -255.00, 0.04, 0.01, -0.20, 10.75, 3.95, 13.62, 21.22, -7.76, -0.04, 0.12, -0.87, -13.11, 1.22, 20.17, 0.04, 0.01, -0.88, -14.74, 0.96, 18.60, 0.04, 0.01, -0.88
82.00, 32.00, -255.00, 0.02, -0.03, 0.14, 10.75, 3.96, 0.42, 24.36, -0.75, -0.03, 0.14, -1.00, -13.96, -0.44, 21.28, 0.03, 0.04, -1.01, -14.43, 0.22, 18.65, 0.03, 0.04, -1.01
49.00, -66.00, 212.00, -0.08, 0.04, -0.20, 10.75, 3.97, 25.65, 23.43, 2.67, -0.02, 0.14, -1.02, -11.52, 0.00, 21.38, 0.02, 0.04, -1.03, -13.48, -0.01, 18.72, 0.02, 0.04, -1.03
-141.00, 82.00, -255.00, 0.15, 0.16, 0.02, 10.75, 3.97, -12.51, 29.01, -0.50, -0.04, 0.11, -0.94, -11.98, -1.07, 19.85, 0.04, 0.01, -0.95, -13.02, -0.60, 18.75, 0.04, 0.01, -0.95
221.00, 231.00, 49.00, -0.13, -0.20, -0.01, 10.50, 3.96, 18.93, 35.06, 12.04, -0.02, 0.14, -1.05, -9.40, 0.17, 18.73, 0.02, 0.04, -1.06, -11.90, -0.34, 18.80, 0.02, 0.04, -1.06
-202.00, -255.00, -32.00, 0.17, 0.16, -0.21, 10.63, 3.95, 8.67, 15.51, -15.45, -0.03, 0.14, -0.96, -10.41, 0.18, 20.47, 0.03, 0.04, -0.97, -11.43, -0.20, 18.84, 0.03, 0.04, -0.97
240.00, 231.00, -255.00, -0.10, 0.19, 0.23, 11.00, 3.94, 6.74, 34.01, 5.98, -0.03, 0.12, -0.94, -9.14, 0.28, 20.97, 0.03, 0.02, -0.95, -10.75, -0.09, 18.90, 0.03, 0.02, -0.95
-167.00, 255.00, 255.00, -0.19, -0.08, 0.13, 10.50, 3.93, 5.39, 44.18, 15.29, -0.02, 0.14, -1.03, -8.89, 0.67, 19.98, 0.02, 0.04, -1.04, -10.16, 0.18, 18.94, 0.02, 0.04, -1.04
-255.00, -142.00, 202.00, -0.20, -0.12, 0.06, 10.88, 3.94, 15.10, 24.32, -6.28, -0.03, 0.13, -0.97, -6.88, -0.14, 20.05, 0.03, 0.02, -0.98, -9.20, -0.07, 18.99, 0.03, 0.02, -0.98
-255.00, -191.00, 113.00, 0.17, 0.06, 0.22, 10.63, 3.95, 14.31, 21.46, -10.64, -0.04, 0.13, -0.99, -5.72, 0.63, 19.49, 0.04, 0.03, -1.00, -8.18, 0.17, 19.04, 0.04, 0.03, -1.00
240.00, 113.00, 255.00, -0.03, 0.03, -0.21, 10.63, 3.95, 36.92, 34.41, 8.13, -0.03, 0.14, -1.00, -5.56, 2.87, 19.77, 0.03, 0.04, -1.01, -7.41, 1.35, 19.09, 0.03, 0.04, -1.01
-66.00, 66.00, -255.00, -0.01, 0.05, -0.10, 10.25, 3.95, 0.29, 30.27, 0.77, -0.03, 0.14, -0.94, -4.31, 2.20, 21.26, 0.03, 0.03, -0.94, -6.52, 1.64, 19.15, 0.03, 0.03, -0.94
-32.00, 98.00, -167.00, 0.07, 0.18, 0.24, 10.63, 3.97, 5.41, 31.34, 5.22, -0.02, 0.14, -0.97, -3.68, 2.10, 20.48, 0.02, 0.03, -0.98, -5.71, 1.77, 19.20, 0.03, 0.03, -0.98
127.00, 247.00, 255.00, -0.11, -0.04, 0.05, 10.63, 3.96, 25.39, 42.75, 14.94, -0.03, 0.13, -0.97, -5.97, 2.99, 18.93, 0.03, 0.02, -0.98, -5.81, 2.30, 19.19, 0.03, 0.02, -0.98
-179.00, -82.00, 98.00, 0.15, 0.23, 0.25, 10.63, 3.96, 16.50, 28.47, -3.71, -0.04, 0.14, -0.99, -3.10, 4.46, 17.74, 0.04, 0.04, -1.00, -5.11, 3.25, 19.20, 0.04, 0.04, -1.00
222.00, 255.00, 255.00, 0.18, 0.21, 0.05, 10.88, 3.95, 31.83, 44.20, 12.88, -0.03, 0.14, -1.00, -4.60, 4.95, 18.03, 0.03, 0.03, -1.01, -5.03, 4.02, 19.19, 0.04, 0.03, -1.01
248.00, 255.00, 98.00, 0.03, -0.12, 0.15, 10.75, 3.94, 26.95, 42.63, 13.86, -0.03, 0.14, -0.95, -4.17, 6.27, 19.75, 0.03, 0.03, -0.96, -4.82, 5.00, 19.20, 0.03, 0.03, -0.96
66.00, -191.00, 223.00, 0.09, 0.01, -0.10, 10.75, 3.95, 40.08, 24.52, -7.02, -0.03, 0.14, -0.97, -3.28, 6.93, 20.18, 0.03, 0.03, -0.98, -4.41, 5.82, 19.22, 0.03, 0.03, -0.98
155.00, 32.00, -167.00, -0.08, -0.14, 0.21, 10.88, 3.97, 18.66, 31.12, 0.01, -0.03, 0.14, -0.98, -3.75, 7.07, 19.28, 0.03, 0.03, -0.98, -4.28, 6.36, 19.23, 0.03, 0.03, -0.98
-141.00, -212.00, 255.00, 0.15, -0.16, -0.17, 10.88, 3.96, 29.29, 27.86, -10.04, -0.03, 0.13, -0.98, -4.32, 8.05, 19.77, 0.03, 0.03, -0.99, -4.33, 7.10, 19.22, 0.03, 0.03, -0.99
222.00, -231.00, -240.00, -0.23, 0.19, -0.08, 10.63, 3.94, 29.66, 20.29, -19.85, -0.04, 0.14, -1.01, -3.56, 9.28, 20.18, 0.04, 0.04, -1.02, -4.14, 8.07, 19.24, 0.04, 0.04, -1.02
-255.00, 255.00, -142.00, -0.09, 0.05, 0.00, 10.63, 3.94, -12.09, 50.38, 9.16, -0.04, 0.14, -0.97, -3.90, 8.98, 19.65, 0.04, 0.04, -0.98, -4.13, 8.46, 19.25, 0.04, 0.04, -0.98
-155.00, 98.00, 0.00, 0.04, 0.08, -0.09, 10.38, 3.96, 6.01, 42.75, 7.31, -0.03, 0.14, -0.95, -3.45, 11.11, 19.74, 0.02, 0.03, -0.96, -4.01, 9.62, 19.24, 0.03, 0.03, -0.96
82.00, 141.00, -154.00, 0.12, -0.09, -0.07, 10.75, 3.98, 9.51, 41.54, 5.22, -0.02, 0.14, -0.78, -5.02, 11.16, 18.12, 0.02, 0.04,