202.00, -240.00, 213.00, 0.22, 0.22, -0.06, 12.38, 3.93, 33.69, 20.08, -12.20, 0.13, 0.49, -1.78, -18.40, 5.88, 19.82, -0.13, 0.38, -1.79, -18.41, 6.05, 18.33, -0.13, 0.38, -1.79
255.00, 255.00, -113.00, 0.10, 0.08, -0.02, 12.50, 3.93, 5.95, 39.18, 9.56, -0.06, 0.40, -2.00, -16.13, 4.32, 18.61, 0.06, 0.30, -2.01, -16.83, 4.62, 18.19, 0.06, 0.30, -2.01
168.00, 142.00, -50.00, 0.24, -0.20, 0.20, 12.38, 3.95, 8.84, 33.27, 7.34, 0.08, -0.04, -2.34, -15.12, 3.22, 18.04, -0.08, -0.14, -2.35, -15.54, 3.38, 18.15, -0.08, -0.14, -2.35
255.00, -255.00, 255.00, 0.18, 0.01, 0.10, 12.75, 3.94, 42.14, 17.01, -14.50, -0.11, 0.26, -2.71, -15.25, 3.21, 19.96, 0.11, 0.16, -2.72, -15.15, 3.17, 18.23, 0.11, 0.16, -2.72
248.00, 32.00, 168.00, 0.24, 0.19, 0.04, 12.63, 3.93, 29.86, 26.76, 4.55, -0.09, 0.23, -3.35, -12.33, 0.91, 19.81, 0.09, 0.12, -3.36, -12.52, 1.02, 18.24, 0.09, 0.12, -3.36
255.00, 255.00, 83.00, -0.17, 0.25, -0.03, 12.63, 3.94, 20.99, 38.57, 13.10, -0.10, 0.25, -3.89, -9.76, 2.31, 18.85, 0.10, 0.15, -3.90, -9.96, 2.20, 18.36, 0.10, 0.15, -3.90
-240.00, 255.00, -66.00, -0.02, 0.00, 0.13, 12.63, 3.94, -10.01, 44.49, 11.02, -0.10, 0.26, -4.34, -5.95, 3.11, 18.85, 0.10, 0.16, -4.35, -6.19, 3.04, 18.48, 0.10, 0.16, -4.35
-50.00, 0.00, 202.00, -0.12, -0.16, 0.14, 12.50, 3.95, 21.81, 33.50, 4.62, -0.09, 0.28, -4.13, -6.38, 5.80, 19.27, 0.09, 0.17, -4.14, -6.33, 5.65, 18.60, 0.09, 0.17, -4.14
-191.00, -231.00, 212.00, 0.10, 0.13, 0.02, 12.38, 3.95, 24.39, 27.99, -11.12, -0.13, 0.24, -4.09, -5.04, 8.79, 20.42, 0.13, 0.14, -4.10, -5.01, 8.60, 18.78, 0.13, 0.14, -4.10
167.00, 202.00, 50.00, -0.13, -0.10, 0.22, 12.38, 3.95, 21.76, 44.94, 11.28, -0.11, 0.26, -4.24, -4.42, 11.00, 17.93, 0.11, 0.16, -4.25, -4.57, 10.89, 18.86, 0.11, 0.16, -4.25
-202.00, -167.00, 255.00, -0.13, 0.10, -0.22, 12.63, 3.95, 21.62, 36.82, -7.04, -0.12, 0.27, -4.08, -6.56, 13.64, 19.86, 0.12, 0.17, -4.09, -6.38, 13.49, 18.94, 0.12, 0.17, -4.09
-202.00, 167.00, -255.00, 0.25, -0.10, -0.23, 12.38, 3.93, -16.44, 49.65, 2.16, -0.12, 0.24, -4.12, -9.37, 13.96, 19.14, 0.12, 0.14, -4.13, -9.17, 13.92, 18.87, 0.12, 0.14, -4.13
255.00, -168.00, -255.00, 0.03, -0.06, -0.13, 12.13, 3.93, 19.57, 29.48, -16.28, -0.12, 0.29, -4.29, -12.37, 15.79, 19.93, 0.12, 0.18, -4.30, -12.10, 15.69, 18.90, 0.12, 0.18, -4.30
67.00, -113.00, -203.00, -0.07, 0.22, -0.03, 12.50, 3.94, 6.99, 32.08, -8.49, -0.12, 0.26, -4.07, -14.56, 14.23, 19.35, 0.12, 0.15, -4.08, -14.37, 14.27, 18.80, 0.12, 0.15, -4.08
-128.00, 255.00, -66.00, -0.21, -0.11, 0.11, 12.38, 3.95, -14.35, 52.81, 12.44, -0.11, 0.25, -4.14, -16.71, 13.61, 18.54, 0.11, 0.14, -4.15, -16.59, 13.62, 18.71, 0.11, 0.14, -4.15
-255.00, -179.00, 179.00, 0.09, 0.18, 0.17, 12.63, 3.94, 3.93, 32.43, -10.20, -0.08, 0.28, -4.08, -18.37, 9.94, 18.39, 0.08, 0.17, -4.09, -18.27, 10.09, 18.53, 0.08, 0.17, -4.09
155.00, 248.00, 240.00, -0.06, -0.18, -0.22, 12.25, 3.93, 13.36, 46.67, 13.31, -0.17, 0.26, -4.25, -18.74, 7.47, 17.40, 0.17, 0.16, -4.26, -18.82, 7.56, 18.39, 0.17, 0.16, -4.26
-113.00, -249.00, -255.00, -0.11, 0.20, 0.22, 12.63, 3.93, -1.99, 18.61, -19.92, -0.09, 0.24, -4.03, -16.11, 4.69, 20.47, 0.09, 0.14, -4.04, -16.14, 4.75, 18.39, 0.09, 0.14, -4.04
-180.00, 255.00, 255.00, -0.09, -0.18, -0.09, 12.63, 3.92, -0.01, 46.14, 12.76, -0.13, 0.28, -4.18, -13.43, 2.29, 17.25, 0.13, 0.17, -4.19, -13.73, 2.38, 18.36, 0.13, 0.17, -4.19
-155.00, -249.00, -155.00, 0.15, 0.20, 0.03, 12.50, 3.93, 6.65, 16.75, -17.28, -0.14, 0.26, -4.31, -9.42, 2.28, 19.91, 0.14, 0.15, -4.32, -9.58, 2.23, 18.52, 0.14, 0.15, -4.32
223.00, 255.00, 66.00, 0.04, -0.23, 0.19, 12.50, 3.94, 18.52, 38.54, 12.93, -0.10, 0.28, -4.02, -9.69, 2.15, 18.17, 0.10, 0.18, -4.03, -9.71, 2.14, 18.51, 0.10, 0.18, -4.03
83.00, -255.00, 255.00, 0.23, -0.09, 0.00, 12.63, 3.93, 40.24, 19.72, -13.61, -0.12, 0.25, -4.21, -7.46, 4.30, 18.38, 0.12, 0.14, -4.22, -7.65, 4.18, 18.63, 0.12, 0.14, -4.22
255.00, -155.00, 0.00, -0.11, 0.08, 0.20, 12.25, 3.94, 36.86, 23.09, -9.02, -0.09, 0.28, -4.08, -5.88, 8.33, 18.97, 0.09, 0.17, -4.09, -6.03, 8.11, 18.84, 0.09, 0.17, -4.09
-180.00, 141.00, 255.00, 0.14, 0.11, 0.20, 12.25, 3.94, 12.58, 44.52, 10.30, -0.13, 0.24, -4.13, -4.77, 6.57, 19.53, 0.13, 0.14, -4.14, -4.81, 6.61, 18.84, 0.13, 0.14, -4.14
213.00, 180.00, 255.00, -0.01, -0.14, -0.05, 12.50, 3.93, 31.96, 45.57, 9.78, -0.13, 0.28, -4.28, -6.30, 10.18, 17.57, 0.13, 0.18, -4.29, -6.35, 10.03, 18.92, 0.13, 0.18, -4.29
-32.00, -213.00, -98.00, 0.21, 0.11, -0.03, 12.25, 3.95, 16.14, 29.14, -12.45, -0.13, 0.26, -4.05, -8.26, 14.83, 19.31, 0.13, 0.15, -4.06, -8.15, 14.59, 19.04, 0.13, 0.15, -4.06
255.00, 179.00, -66.00, 0.12, 0.05, -0.23, 12.63, 3.95, 16.46, 47.15, 7.48, -0.11, 0.26, -4.13, -10.32, 16.06, 18.48, 0.11, 0.16, -4.14, -10.26, 15.99, 19.02, 0.11, 0.16, -4.14
191.00, 98.00, -255.00, -0.16, 0.01, 0.03, 12.38, 3.94, 6.65, 44.05, -1.27, -0.11, 0.26, -4.17, -11.23, 16.72, 18.32, 0.11, 0.16, -4.18, -11.26, 16.67, 19.00, 0.11, 0.16, -4.18
-232.00, 32.00, 66.00, -0.17, 0.05, 0.15, 12.25, 3.95, -4.57, 46.29, 3.19, -0.12, 0.26, -4.18, -14.95, 15.71, 18.95, 0.12, 0.16, -4.19, -14.73, 15.74, 18.87, 0.12, 0.16, -4.19
-240.00, 98.00, 222.00, -0.04, -0.13, -0.16, 12.75, 3.95, -2.21, 48.86, 6.18, -0.12, 0.27, -4.14, -16.24, 12.40, 18.24, 0.12, 0.17, -4.15, -16.20, 12.53, 18.69, 0.12, 0.17, -4.15
-82.00, -202.00, -231.00, -0.13, 0.16, 0.12, 12.75, 3.94, -3.01, 25.69, -17.41, -0.12, 0.27, -4.12, -18.22, 10.26, 18.04, 0.12, 0.16, -4.13, -18.14, 10.34, 18.53, 0.12, 0.16, -4.13
-202.00, 232.00, 191.00, -0.18, -0.13, 0.00, 12.75, 3.94, -7.07, 48.44, 12.45, -0.12, 0.26, -4.18, -17.22, 6.45, 18.00, 0.12, 0.15, -4.19, -17.33, 6.59, 18.41, 0.12, 0.15, -4.19
-248.00, -202.00, 0.00, 0.17, 0.15, -0.05, 12.38, 3.94, -1.91, 24.28, -12.66, -0.11, 0.26, -4.15, -17.70, 5.14, 18.88, 0.11, 0.16, -4.15, -17.63, 5.17, 18.36, 0.11, 0.16, -4.15
240.00, 222.00, -98.00, -0.01, 0.10, -0.17, 12.50, 3.94, 7.85, 36.22, 7.88, -0.12, 0.26, -4.13, -15.16, 2.86, 17.54, 0.12, 0.16, -4.14, -15.41, 2.93, 18.34, 0.12, 0.16, -4.14
-32.00, 167.00, -240.00, 0.18, -0.18, -0.14, 12.75, 3.95, -9.03, 33.65, 5.58, -0.13, 0.26, -4.15, -12.30, 0.62, 20.05, 0.12, 0.15, -4.16, -12.37, 0.67, 18.38, 0.12, 0.15, -4.16
248.00, -248.00, -212.00, 0.06, 0.08, 0.22, 12.75, 3.93, 25.99, 13.64, -20.37, -0.12, 0.27, -4.14, -10.34, 3.51, 19.95, 0.12, 0.17, -4.15, -10.37, 3.34, 18.57, 0.12, 0.17, -4.15
113.00, 142.00, 255.00, -0.05, -0.21, -0.02, 12.75, 3.93, 27.74, 38.38, 10.03, -0.10, 0.27, -4.15, -6.30, 4.06, 18.07, 0.10, 0.16, -4.16, -6.66, 4.00, 18.68, 0.10, 0.16, -4.16
-98.00, -255.00, -50.00, -0.10, -0.04, 0.22, 12.50, 3.95, 17.26, 20.77, -14.25, -0.11, 0.26, -4.16, -6.97, 7.25, 20.24, 0.11, 0.16, -4.17, -6.84, 7.07, 18.82, 0.11, 0.16, -4.17
-167.00, -82.00, 255.00, -0.12, -0.01, 0.02, 12.38, 3.95, 21.35, 35.40, -1.81, -0.12, 0.27, -4.15, -5.57, 8.94, 18.93, 0.12, 0.16, -4.16, -5.69, 8.83, 18.92, 0.12, 0.16, -4.16
-191.00, -32.00, 50.00, -0.14, 0.02, 0.17, 12.63, 3.96, 8.64, 37.72, -0.39, -0.13, 0.26, -4.15, -6.01, 11.43, 18.29, 0.13, 0.16, -4.16, -6.09, 11.30, 18.99, 0.13, 0.16, -4.16
-212.00, 49.00, 240.00, 0.05, 0.15, 0.18, 12.38, 3.95, 11.77, 46.87, 5.51, -0.12, 0.27, -4.14, -6.63, 13.26, 19.57, 0.12, 0.16, -4.15, -6.58, 13.15, 19.06, 0.12, 0.16, -4.15
98.00, 222.00, 248.00, -0.01, -0.12, 0.09, 12.75, 3.94, 19.07, 53.45, 12.12, -0.13, 0.27, -4.14, -11.03, 14.90, 16.60, 0.13, 0.16, -4.15, -10.96, 14.84, 18.94, 0.13, 0.16, -4.15
-32.00, -191.00, 155.00, -0.09, 0.08, 0.03, 12.50, 3.95, 20.90, 33.63, -9.22, -0.11, 0.27, -4.14, -13.84, 16.07, 17.60, 0.11, 0.17, -4.15, -13.79, 16.01, 18.87, 0.11, 0.17, -4.15
-155.00, 141.00, 66.00, -0.13, -0.22, 0.08, 12.50, 3.96, -2.70, 48.35, 10.90, -0.12, 0.26, -4.15, -13.31, 13.70, 20.12, 0.12, 0.15, -4.16, -13.27, 13.76, 18.84, 0.12, 0.15, -4.16
-201.00, -255.00, 141.00, -0.16, -0.21, 0.08, 12.38, 3.95, 10.17, 30.15, -15.27, -0.11, 0.27, -4.15, -16.48, 12.95, 18.46, 0.11, 0.16, -4.16, -16.30, 12.97, 18.72, 0.11, 0.16, -4.16
-231.00, -255.00, 141.00, -0.17, -0.01, 0.16, 12.50, 3.93, 6.91, 27.76, -15.62, -0.12, 0.26, -4.12, -17.94, 9.82, 18.49, 0.12, 0.15, -4.13, -17.85, 9.93, 18.56, 0.12, 0.15, -4.13
-241.00, -32.00, 232.00, 0.16, 0.02, -0.14, 12.63, 3.94, 1.45, 36.31, 0.70, -0.12, 0.26, -4.18, -18.15, 6.26, 19.56, 0.12, 0.16, -4.19, -18.04, 6.37, 18.45, 0.12, 0.16, -4.19
232.00, 50.00, -213.00, 0.06, -0.05, -0.05, 12.38, 3.94, 5.85, 29.54, -2.08, -0.11, 0.25, -4.12, -18.04, 5.16, 18.85, 0.11, 0.15, -4.13, -18.01, 5.17, 18.42, 0.11, 0.15, -4.13
113.00, -98.00, -98.00, -0.07, -0.20, -0.22, 12.75, 3.96, 13.90, 20.45, -3.76, -0.13, 0.25, -4.16, -14.33, 2.22, 20.15, 0.13, 0.15, -4.17, -14.44, 2.28, 18.46, 0.13, 0.15, -4.17
-127.00, -255.00, -255.00, 0.03, 0.24, 0.24, 12.63, 3.95, 0.16, 16.35, -19.79, -0.11, 0.27, -4.16, -13.30, 2.55, 21.42, 0.11, 0.16, -4.17, -13.13, 2.48, 18.56, 0.11, 0.16, -4.17
66.00, 255.00, 255.00, 0.06, 0.20, -0.10, 12.38, 3.93, 18.12, 42.24, 14.69, -0.12, 0.26, -4.12, -9.37, 1.58, 17.77, 0.12, 0.15, -4.13, -9.71, 1.59, 18.61, 0.12, 0.15, -4.13
113.00, 255.00, -168.00, 0.24, -0.04, 0.18, 12.50, 3.94, 4.97, 40.08, 9.63, -0.10, 0.27, -4.16, -6.74, 3.93, 18.12, 0.10, 0.17, -4.17, -7.01, 3.80, 18.76, 0.10, 0.17, -4.17
255.00, -83.00, 248.00, 0.05, 0.15, -0.11, 12.50, 3.94, 43.06, 27.46, -2.92, -0.11, 0.26, -4.15, -7.53, 5.92, 19.09, 0.11, 0.16, -4.16, -7.49, 5.81, 18.83, 0.11, 0.16, -4.16
98.00, 223.00, -180.00, 0.14, -0.19, 0.18, 12.63, 3.94, 6.05, 43.76, 7.09, -0.13, 0.25, -4.14, -5.31, 9.16, 17.12, 0.13, 0.15, -4.15, -5.66, 9.01, 18.97, 0.13, 0.15, -4.15
213.00, -255.00, 248.00, -0.08, 0.09, 0.15, 12.50, 3.93, 47.54, 26.64, -14.82, -0.11, 0.27, -4.15, -7.14, 12.53, 18.70, 0.11, 0.16, -4.16, -7.10, 12.36, 19.06, 0.11, 0.16, -4.16
-142.00, 155.00, 223.00, 0.07, -0.23, 0.00, 12.25, 3.93, 12.91, 50.16, 10.20, -0.13, 0.27, -4.16, -4.84, 12.87, 18.27, 0.13, 0.17, -4.17, -5.11, 12.83, 19.12, 0.13, 0.17, -4.17
128.00, -255.00, 0.00, -0.17, -0.02, -0.14, 12.38, 3.95, 29.38, 27.73, -15.61, -0.13, 0.27, -4.08, -10.00, 16.30, 18.06, 0.13, 0.16, -4.09, -9.78, 16.15, 19.08, 0.13, 0.16, -4.09
-240.00, -50.00, -212.00, 0.23, -0.12, 0.20, 12.50, 3.95, -9.97, 40.65, -8.18, -0.13, 0.27, -4.19, -10.86, 15.16, 18.56, 0.13, 0.16, -4.20, -10.87, 15.19, 19.00, 0.13, 0.16, -4.20
255.00, -191.00, 255.00, -0.18, -0.01, 0.21, 12.75, 3.93, 37.52, 33.10, -11.40, -0.11, 0.27, -4.13, -17.50, 16.46, 18.01, 0.11, 0.17, -4.14, -17.15, 16.41, 18.86, 0.11, 0.17, -4.14
-249.00, -32.00, 255.00, 0.12, 0.16, 0.14, 12.88, 3.93, 3.38, 42.98, -1.49, -0.13, 0.25, -4.15, -16.72, 12.31, 17.61, 0.13, 0.15, -4.16, -16.88, 12.47, 18.70, 0.13, 0.15, -4.16
192.00, 232.00, 213.00, -0.18, 0.21, 0.19, 12.50, 3.93, 14.63, 47.38, 13.02, -0.12, 0.27, -4.17, -18.90, 9.84, 18.12, 0.12, 0.16, -4.17, -18.82, 9.93, 18.53, 0.12, 0.16, -4.17
-249.00, 255.00, 255.00, -0.18, -0.18, -0.02, 12.75, 3.92, -7.69, 51.52, 13.10, -0.13, 0.26, -4.12, -17.09, 6.15, 18.77, 0.13, 0.16, -4.13, -17.20, 6.28, 18.45, 0.13, 0.16, -4.13
-249.00, -249.00, -50.00, -0.01, -0.06, -0.09, 12.38, 3.92, -1.80, 21.65, -16.47, -0.11, 0.25, -4.17, -17.05, 4.83, 19.54, 0.11, 0.14, -4.18, -16.97, 4.84, 18.43, 0.11, 0.14, -4.18
-32.00, -114.00, -155.00, 0.14, 0.06, -0.16, 12.75, 3.95, 2.95, 20.29, -5.83, -0.12, 0.26, -4.21, -15.08, 1.51, 20.40, 0.12, 0.16, -4.22, -15.04, 1.59, 18.41, 0.12, 0.16, -4.22
212.00, 113.00, -231.00, 0.02, -0.22, 0.19, 12.50, 3.95, 7.86, 30.59, 1.08, -0.13, 0.28, -4.11, -11.64, 2.72, 19.30, 0.13, 0.17, -4.12, -11.82, 2.62, 18.57, 0.13, 0.17, -4.12
49.00, -255.00, 255.00, -0.10, 0.05, 0.17, 12.50, 3.94, 35.59, 18.01, -12.64, -0.11, 0.25, -4.10, -10.23, 2.30, 19.22, 0.11, 0.15, -4.11, -10.30, 2.28, 18.61, 0.11, 0.15, -4.11
-168.00, 98.00, 240.00, -0.17, -0.04, 0.02, 12.50, 3.94, 14.21, 39.71, 8.05, -0.10, 0.28, -4.21, -4.86, 4.53, 19.02, 0.10, 0.18, -4.22, -5.23, 4.39, 18.82, 0.10, 0.18, -4.22
-240.00, -83.00, 50.00, 0.21, -0.24, -0.12, 12.63, 3.95, 7.98, 30.87, -4.09, -0.10, 0.26, -4.04, -5.82, 5.94, 18.45, 0.10, 0.15, -4.05, -5.83, 5.86, 18.86, 0.10, 0.15, -4.05
255.00, -255.00, -191.00, 0.09, 0.05, 0.02, 12.63, 3.94, 32.99, 19.91, -19.38, -0.14, 0.27, -4.26, -4.93, 10.22, 20.97, 0.14, 0.16, -4.27, -4.85, 9.99, 19.09, 0.14, 0.16, -4.27
155.00, 98.00, 50.00, 0.12, 0.02, -0.19, 12.38, 3.95, 22.98, 38.67, 7.94, -0.11, 0.26, -4.13, -6.39, 10.06, 19.02, 0.11, 0.15, -4.14, -6.31, 10.05, 19.05, 0.11, 0.15, -4.14
191.00, 50.00, -255.00, 0.22, -0.21, 0.14, 12.38, 3.95, 10.57, 38.53, -3.27, -0.14, 0.26, -4.12, -9.17, 13.65, 18.68, 0.14, 0.16, -4.13, -9.04, 13.49, 19.09, 0.14, 0.16, -4.13
255.00, -255.00, 212.00, -0.11, 0.10, -0.09, 12.38, 3.93, 43.63, 29.29, -15.59, -0.11, 0.27, -4.23, -11.90, 16.29, 18.72, 0.11, 0.17, -4.24, -11.78, 16.16, 19.11, 0.11, 0.17, -4.24
-180.00, 168.00, -155.00, 0.11, 0.14, -0.15, 12.88, 3.94, -12.58, 49.43, 5.41, -0.12, 0.26, -4.09, -11.07, 14.20, 18.12, 0.12, 0.16, -4.10, -11.24, 14.27, 19.03, 0.12, 0.16, -4.10
180.00, 213.00, -223.00, -0.19, -0.22, -0.11, 12.38, 3.94, 0.07, 47.54, 5.14, -0.12, 0.27, -4.16, -14.36, 14.17, 18.16, 0.12, 0.16, -4.17, -14.25, 14.17, 18.92, 0.12, 0.16, -4.17
-255.00, -255.00, -180.00, 0.16, -0.23, 0.22, 12.50, 3.93, -7.15, 29.17, -21.41, -0.11, 0.27, -4.16, -16.49, 12.77, 18.70, 0.11, 0.17, -4.17, -16.37, 12.81, 18.81, 0.11, 0.17, -4.17
232.00, -255.00, 255.00, 0.02, -0.20, 0.00, 12.50, 3.91, 35.78, 24.92, -14.07, -0.13, 0.25, -4.08, -20.03, 10.78, 19.73, 0.13, 0.14, -4.09, -19.69, 10.84, 18.66, 0.13, 0.14, -4.09
50.00, -255.00, 0.00, -0.03, 0.01, 0.07, 12.50, 3.94, 16.35, 19.48, -13.67, -0.12, 0.27, -4.17, -18.50, 7.26, 19.30, 0.12, 0.16, -4.18, -18.53, 7.37, 18.58, 0.12, 0.16, -4.18
-66.00, 32.00, 128.00, 0.24, 0.23, -0.21, 12.50, 3.97, 6.56, 33.62, 5.31, -0.11, 0.26, -4.14, -16.23, 5.24, 18.46, 0.11, 0.16, -4.15, -16.41, 5.29, 18.56, 0.11, 0.16, -4.15
255.00, 255.00, -255.00, -0.11, 0.23, 0.19, 12.13, 3.94, 1.11, 37.04, 5.51, -0.13, 0.27, -4.28, -14.74, 2.10, 19.63, 0.13, 0.17, -4.29, -14.75, 2.19, 18.51, 0.13, 0.17, -4.29
-180.00, 255.00, 255.00, -0.21, -0.14, 0.09, 12.25, 3.92, 1.49, 44.68, 13.53, -0.12, 0.27, -4.07, -11.97, 0.89, 18.12, 0.12, 0.16, -4.08, -12.21, 0.92, 18.54, 0.12, 0.16, -4.08
-255.00, -213.00, 155.00, 0.07, -0.01, -0.12, 12.25, 3.93, 13.90, 22.35, -10.55, -0.12, 0.26, -4.13, -8.66, 1.78, 20.63, 0.12, 0.16, -4.14, -8.75, 1.68, 18.70, 0.12, 0.16, -4.14
128.00, -32.00, -192.00, -0.02, -0.16, -0.12, 12.50, 3.95, 14.75, 24.50, -3.58, -0.09, 0.28, -4.22, -7.50, 3.29, 19.37, 0.09, 0.18, -4.22, -7.55, 3.19, 18.80, 0.09, 0.18, -4.22
-50.00, -231.00, -191.00, -0.03, 0.12, -0.10, 12.50, 3.95, 15.51, 20.18, -17.13, -0.12, 0.26, -4.08, -4.36, 6.59, 18.99, 0.12, 0.15, -4.09, -4.62, 6.40, 19.01, 0.12, 0.15, -4.09
-66.00, 191.00, -167.00, -0.19, -0.02, -0.13, 12.88, 3.95, 1.01, 44.30, 5.70, -0.13, 0.26, -4.20, -2.62, 9.65, 16.54, 0.13, 0.16, -4.21, -3.02, 9.52, 19.12, 0.13, 0.16, -4.21
-255.00, -50.00, -202.00, 0.18, 0.10, 0.09, 12.50, 3.95, -4.95, 37.61, -7.85, -0.10, 0.27, -4.15, -5.37, 11.75, 18.83, 0.10, 0.17, -4.16, -5.26, 11.65, 19.15, 0.10, 0.17, -4.16
248.00, 167.00, 155.00, -0.13, 0.19, 0.14, 12.63, 3.94, 28.43, 46.20, 7.09, -0.14, 0.28, -4.11, -8.08, 13.57, 15.99, 0.14, 0.17, -4.12, -8.20, 13.51, 19.06, 0.14, 0.17, -4.12
-202.00, 255.00, 213.00, 0.09, 0.11, 0.11, 12.50, 3.93, 1.65, 57.73, 11.59, -0.10, 0.29, -4.21, -8.71, 14.18, 16.30, 0.10, 0.18, -4.22, -8.95, 14.16, 19.00, 0.11, 0.18, -4.22
155.00, 180.00, 180.00, 0.12, 0.05, 0.18, 12.38, 3.94, 18.06, 49.74, 9.75, -0.12, 0.27, -4.12, -13.84, 15.18, 16.52, 0.12, 0.16, -4.13, -13.74, 15.15, 18.83, 0.12, 0.16, -4.13
191.00, 98.00, 248.00, 0.24, -0.23, -0.08, 12.50, 3.95, 24.04, 44.07, 6.37, -0.13, 0.28, -4.18, -15.85, 12.84, 17.38, 0.13, 0.17, -4.19, -15.85, 12.93, 18.65, 0.13, 0.17, -4.19
255.00, -255.00, -141.00, -0.14, 0.00, -0.07, 12.63, 3.93, 22.32, 24.04, -20.32, -0.10, 0.25, -4.19, -17.78, 14.31, 18.35, 0.10, 0.15, -4.20, -17.70, 14.22, 18.64, 0.10, 0.15, -4.20
-213.00, 0.00, -128.00, 0.13, -0.02, -0.12, 12.38, 3.95, -13.64, 36.88, -2.47, -0.13, 0.28, -4.11, -17.84, 9.55, 18.16, 0.13, 0.17, -4.12, -17.88, 9.73, 18.45, 0.13, 0.17, -4.12
202.00, -50.00, -191.00, -0.05, -0.18, -0.13, 12.25, 3.95, 8.17, 27.02, -7.57, -0.12, 0.27, -4.13, -19.01, 7.36, 17.37, 0.12, 0.16, -4.14, -19.02, 7.45, 18.31, 0.12, 0.16, -4.14
-98.00, -248.00, -202.00, 0.10, -0.04, 0.07, 12.75, 3.95, -0.73, 18.53, -18.65, -0.11, 0.25, -4.16, -17.95, 4.98, 19.51, 0.11, 0.15, -4.17, -17.93, 5.04, 18.27, 0.11, 0.15, -4.17
167.00, -82.00, 128.00, -0.11, -0.03, -0.10, 12.63, 3.95, 26.31, 22.99, 0.42, -0.12, 0.26, -4.12, -14.36, 2.60, 20.81, 0.12, 0.15, -4.13, -14.40, 2.63, 18.34, 0.12, 0.15, -4.13
-179.00, -66.00, -167.00, 0.24, 0.04, 0.19, 12.63, 3.96, -5.52, 23.87, -5.82, -0.12, 0.27, -4.15, -12.56, 0.55, 19.27, 0.12, 0.16, -4.16, -12.60, 0.60, 18.33, 0.12, 0.16, -4.16
255.00, 82.00, 255.00, 0.02, -0.17, 0.11, 12.63, 3.95, 34.77, 32.70, 4.60, -0.12, 0.27, -4.18, -9.63, 2.80, 17.67, 0.12, 0.17, -4.19, -9.92, 2.67, 18.48, 0.12, 0.17, -4.19
50.00, -240.00, 179.00, -0.23, 0.11, -0.17, 12.50, 3.94, 36.35, 19.69, -10.08, -0.09, 0.27, -4.12, -5.84, 4.75, 20.44, 0.09, 0.17, -4.13, -5.99, 4.60, 18.68, 0.09, 0.17, -4.13
-255.00, 180.00, -240.00, 0.24, -0.02, 0.13, 12.50, 3.94, -13.81, 43.57, 1.91, -0.10, 0.27, -4.17, -3.75, 5.95, 18.63, 0.10, 0.17, -4.18, -3.94, 5.87, 18.77, 0.10, 0.17, -4.18
255.00, -50.00, 202.00, 0.15, -0.24, 0.24, 12.50, 3.93, 42.20, 31.54, -0.92, -0.11, 0.27, -4.17, -5.11, 9.26, 18.99, 0.11, 0.17, -4.18, -5.04, 9.10, 18.88, 0.11, 0.17, -4.18
223.00, -255.00, 255.00, -0.12, -0.01, -0.09, 12.88, 3.93, 48.41, 26.09, -14.00, -0.14, 0.26, -4.14, -7.04, 11.88, 19.62, 0.14, 0.16, -4.15, -6.87, 11.74, 18.94, 0.14, 0.16, -4.15
-192.00, -32.00, -155.00, -0.06, -0.17, -0.19, 12.63, 3.94, -2.38, 38.83, -4.81, -0.12, 0.29, -4.17, -7.92, 13.57, 18.01, 0.12, 0.19, -4.18, -7.97, 13.48, 18.96, 0.12, 0.19, -4.18
-113.00, -240.00, -255.00, 0.06, 0.25, -0.06, 12.63, 3.95, 4.85, 29.49, -19.44, -0.14, 0.29, -4.12, -8.89, 15.26, 20.38, 0.14, 0.18, -4.13, -8.75, 15.15, 19.05, 0.14, 0.18, -4.13
113.00, 255.00, -113.00, 0.03, -0.06, 0.17, 12.50, 3.94, 0.82, 51.72, 9.31, -0.11, 0.27, -4.14, -13.31, 15.48, 16.14, 0.11, 0.16, -4.15, -13.26, 15.49, 18.86, 0.12, 0.16, -4.15
66.00, -113.00, 240.00, -0.05, -0.10, 0.19, 12.63, 3.95, 24.22, 36.95, -5.39, -0.12, 0.27, -4.14, -16.75, 15.27, 16.00, 0.12, 0.17, -4.15, -16.78, 15.29, 18.68, 0.12, 0.17, -4.15
-98.00, -167.00, 255.00, 0.12, 0.22, 0.12, 12.63, 3.95, 16.08, 34.22, -7.75, -0.12, 0.26, -4.13, -18.19, 12.90, 17.82, 0.12, 0.16, -4.14, -18.18, 12.99, 18.53, 0.12, 0.16, -4.14
191.00, 255.00, 191.00, 0.01, 0.06, 0.04, 12.63, 3.94, 10.83, 47.92, 12.63, -0.12, 0.26, -4.17, -20.99, 9.52, 16.77, 0.12, 0.16, -4.18, -20.94, 9.66, 18.29, 0.12, 0.16, -4.18
32.00, 113.00, 83.00, 0.09, -0.06, -0.16, 12.75, 3.95, 5.36, 36.44, 9.62, -0.12, 0.26, -4.14, -17.88, 5.56, 18.76, 0.12, 0.15, -4.15, -18.06, 5.69, 18.24, 0.12, 0.15, -4.15
154.00, -113.00, -231.00, 0.08, 0.15, 0.22, 12.38, 3.96, 9.68, 21.57, -9.50, -0.13, 0.26, -4.16, -15.58, 4.52, 20.32, 0.13, 0.15, -4.17, -15.59, 4.50, 18.31, 0.13, 0.15, -4.17
141.00, 222.00, 255.00, -0.19, -0.23, 0.12, 12.63, 3.94, 19.00, 39.55, 13.87, -0.12, 0.26, -4.16, -13.81, 1.23, 18.78, 0.12, 0.16, -4.17, -13.89, 1.34, 18.25, 0.12, 0.16, -4.17
-255.00, -255.00, 191.00, -0.20, -0.09, 0.14, 13.00, 3.92, 15.59, 20.18, -15.23, -0.12, 0.27, -4.11, -9.94, 0.81, 19.10, 0.12, 0.16, -4.11, -10.16, 0.79, 18.36, 0.12, 0.16, -4.11
-255.00, -155.00, 213.00, 0.09, 0.01, -0.24, 12.75, 3.92, 15.81, 26.02, -5.96, -0.11, 0.26, -4.16, -7.01, 1.83, 20.85, 0.11, 0.16, -4.17, -7.03, 1.73, 18.51, 0.11, 0.16, -4.17
155.00, 32.00, -255.00, -0.07, 0.14, 0.23, 12.63, 3.94, 13.24, 28.43, -2.34, -0.09, 0.28, -4.16, -5.17, 4.11, 19.88, 0.09, 0.17, -4.17, -5.21, 3.97, 18.66, 0.09, 0.17, -4.17
-128.00, 213.00, 255.00, 0.02, -0.03, 0.09, 12.63, 3.94, 11.37, 46.01, 12.48, -0.10, 0.27, -4.13, -6.40, 5.19, 17.88, 0.10, 0.16, -4.14, -6.40, 5.14, 18.67, 0.10, 0.16, -4.14
50.00, -66.00, 155.00, -0.10, -0.06, -0.13, 12.50, 3.95, 29.13, 31.39, 0.85, -0.11, 0.27, -4.16, -5.42, 8.78, 19.14, 0.11, 0.17, -4.17, -5.49, 8.59, 18.84, 0.11, 0.17, -4.17
-167.00, -113.00, -202.00, -0.12, -0.13, 0.20, 12.50, 3.96, 2.05, 32.20, -9.40, -0.13, 0.28, -4.15, -6.00, 11.35, 19.67, 0.13, 0.17, -4.16, -5.94, 11.21, 18.95, 0.13, 0.17, -4.16
-191.00, -202.00, 255.00, 0.05, 0.18, -0.05, 12.38, 3.94, 22.61, 35.30, -10.30, -0.12, 0.28, -4.12, -7.54, 13.96, 19.04, 0.12, 0.18, -4.13, -7.46, 13.82, 19.02, 0.12, 0.18, -4.13
98.00, 248.00, -98.00, 0.19, 0.19, 0.21, 12.88, 3.94, 3.86, 52.46, 10.46, -0.13, 0.28, -4.19, -10.29, 16.39, 16.99, 0.13, 0.18, -4.20, -10.31, 16.28, 18.99, 0.13, 0.18, -4.20
255.00, 255.00, 255.00, -0.21, -0.23, -0.15, 12.88, 3.93, 24.22, 54.82, 11.50, -0.12, 0.28, -4.15, -13.79, 15.89, 17.00, 0.12, 0.17, -4.16, -13.74, 15.91, 18.82, 0.12, 0.17, -4.16
-255.00, -255.00, -223.00, 0.07, -0.15, -0.20, 12.75, 3.91, -7.09, 31.53, -22.46, -0.12, 0.26, -4.14, -14.62, 15.03, 19.08, 0.12, 0.16, -4.15, -14.56, 15.03, 18.77, 0.12, 0.16, -4.15
128.00, -223.00, -255.00, -0.12, 0.15, -0.12, 12.63, 3.92, 6.72, 25.61, -18.18, -0.11, 0.27, -4.15, -20.13, 13.14, 19.95, 0.11, 0.16, -4.15, -19.65, 13.20, 18.60, 0.11, 0.16, -4.16
-192.00, 223.00, -192.00, 0.05, 0.13, -0.09, 12.38, 3.93, -22.27, 48.41, 5.66, -0.12, 0.27, -4.14, -16.57, 10.09, 17.60, 0.12, 0.17, -4.15, -16.90, 10.19, 18.54, 0.12, 0.17, -4.15
98.00, 202.00, -155.00, 0.07, -0.14, 0.05, 12.63, 3.95, -3.58, 40.37, 6.88, -0.11, 0.26, -4.17, -16.75, 6.86, 16.95, 0.11, 0.16, -4.18, -16.90, 6.99, 18.39, 0.11, 0.16, -4.18
128.00, -212.00, 98.00, 0.01, 0.10, -0.16, 12.50, 3.95, 23.34, 19.64, -10.20, -0.11, 0.27, -4.16, -18.85, 5.36, 18.95, 0.11, 0.16, -4.17, -18.66, 5.40, 18.30, 0.11, 0.16, -4.17
32.00, 167.00, -231.00, 0.18, -0.08, 0.21, 12.25, 3.95, -6.24, 33.69, 6.02, -0.13, 0.27, -4.13, -13.54, 1.37, 20.13, 0.13, 0.16, -4.14, -13.74, 1.49, 18.34, 0.13, 0.16, -4.14
248.00, -141.00, 255.00, -0.19, 0.02, 0.10, 12.25, 3.94, 40.92, 21.78, -5.58, -0.11, 0.27, -4.14, -11.92, 2.79, 20.14, 0.11, 0.17, -4.15, -11.91, 2.68, 18.46, 0.11, 0.17, -4.15
-255.00, 50.00, 167.00, -0.08, 0.02, -0.05, 12.75, 3.94, 5.52, 35.30, 5.29, -0.11, 0.27, -4.14, -7.21, 1.92, 19.97, 0.11, 0.17, -4.15, -7.43, 1.90, 18.58, 0.11, 0.17, -4.15
-142.00, 50.00, -98.00, 0.19, 0.19, 0.00, 12.25, 3.96, -0.47, 33.08, 2.10, -0.10, 0.27, -4.14, -8.10, 4.54, 18.29, 0.10, 0.17, -4.15, -8.09, 4.41, 18.66, 0.10, 0.17, -4.15
255.00, 255.00, 0.00, -0.16, 0.13, 0.01, 12.63, 3.95, 22.70, 42.46, 10.45, -0.11, 0.26, -4.16, -4.43, 6.93, 17.11, 0.11, 0.16, -4.17, -4.86, 6.81, 18.81, 0.11, 0.16, -4.17
-231.00, 202.00, 32.00, 0.05, -0.18, 0.25, 12.88, 3.94, -3.46, 48.36, 9.81, -0.12, 0.26, -4.16, -5.99, 9.32, 17.94, 0.12, 0.15, -4.17, -6.02, 9.21, 18.85, 0.12, 0.15, -4.17
98.00, -248.00, 255.00, -0.13, 0.21, 0.22, 12.63, 3.94, 40.88, 28.09, -12.95, -0.12, 0.27, -4.16, -7.51, 12.53, 18.61, 0.12, 0.17, -4.17, -7.47, 12.38, 18.93, 0.12, 0.17, -4.17
-202.00, 255.00, 255.00, -0.19, 0.07, -0.22, 12.75, 3.92, 5.28, 58.10, 12.07, -0.13, 0.28, -4.16, -6.89, 13.82, 16.98, 0.13, 0.17, -4.17, -7.15, 13.76, 18.95, 0.13, 0.17, -4.17
-255.00, 128.00, -255.00, -0.21, 0.15, -0.09, 13.00, 3.92, -16.63, 50.01, -1.40, -0.12, 0.28, -4.14, -7.99, 15.13, 18.23, 0.12, 0.17, -4.15, -8.04, 15.06, 18.96, 0.12, 0.17, -4.15
-255.00, 223.00, -155.00, -0.02, -0.21, 0.22, 12.25, 3.93, -18.84, 55.19, 5.54, -0.12, 0.28, -4.15, -11.13, 15.44, 17.40, 0.12, 0.17, -4.16, -11.08, 15.43, 18.85, 0.12, 0.17, -4.16
-50.00, -255.00, 255.00, 0.03, -0.01, 0.10, 12.88, 3.93, 24.80, 31.53, -13.01, -0.11, 0.26, -4.14, -15.32, 14.73, 18.88, 0.11, 0.16, -4.15, -15.04, 14.74, 18.72, 0.11, 0.16, -4.15
66.00, -32.00, 168.00, 0.04, 0.16, 0.05, 12.75, 3.95, 15.77, 38.21, 1.34, -0.12, 0.27, -4.16, -18.88, 13.86, 17.67, 0.12, 0.16, -4.17, -18.72, 13.89, 18.56, 0.12, 0.16, -4.17
82.00, 231.00, 98.00, 0.12, 0.13, -0.02, 12.50, 3.96, 3.80, 46.59, 12.19, -0.11, 0.27, -4.13, -18.69, 9.74, 16.30, 0.10, 0.16, -4.14, -18.89, 9.91, 18.35, 0.11, 0.16, -4.14
190.00, 201.00, -49.00, -0.13, 0.00, 0.11, 12.63, 3.95, 4.79, 39.73, 9.57, -0.12, 0.26, -4.14, -18.31, 6.74, 18.02, 0.12, 0.16, -4.15, -18.38, 6.85, 18.25, 0.12, 0.16, -4.15
-202.00, 0.00, 179.00, 0.25, -0.21, -0.04, 12.63, 3.95, 2.21, 33.79, 2.82, -0.11, 0.26, -4.16, -16.13, 3.96, 19.15, 0.11, 0.16, -4.17, -16.21, 4.04, 18.22, 0.11, 0.16, -4.17
255.00, -255.00, -82.00, -0.16, 0.15, 0.04, 12.38, 3.94, 27.05, 13.67, -17.92, -0.12, 0.27, -4.15, -15.74, 3.85, 19.32, 0.12, 0.17, -4.16, -15.68, 3.82, 18.25, 0.12, 0.17, -4.16
-232.00, 222.00, 83.00, -0.08, 0.18, -0.17, 12.63, 3.94, -5.61, 42.20, 11.63, -0.13, 0.27, -4.12, -9.68, 1.59, 18.53, 0.13, 0.17, -4.13, -10.10, 1.64, 18.35, 0.13, 0.17, -4.13
-142.00, 248.00, -240.00, 0.16, 0.19, 0.13, 12.75, 3.93, -14.25, 40.53, 7.69, -0.11, 0.28, -4.19, -8.50, 1.73, 19.71, 0.11, 0.17, -4.20, -8.51, 1.69, 18.41, 0.11, 0.17, -4.20
232.00, 255.00, 202.00, 0.12, -0.04, 0.15, 12.63, 3.92, 29.11, 42.56, 12.60, -0.10, 0.29, -4.11, -5.40, 4.43, 17.55, 0.10, 0.18, -4.12, -5.73, 4.29, 18.58, 0.10, 0.18, -4.12
192.00, -83.00, 223.00, 0.25, 0.20, 0.10, 12.63, 3.94, 41.01, 28.06, -1.27, -0.12, 0.24, -4.16, -5.01, 6.37, 19.41, 0.12, 0.14, -4.17, -5.02, 6.25, 18.68, 0.12, 0.14, -4.17
255.00, 255.00, 168.00, 0.03, -0.10, 0.11, 12.38, 3.93, 28.78, 47.69, 11.56, -0.13, 0.31, -4.18, -5.63, 10.34, 17.03, 0.13, 0.21, -4.19, -5.78, 10.16, 18.82, 0.13, 0.21, -4.19
66.00, -168.00, 180.00, -0.12, 0.13, -0.20, 12.50, 3.94, 32.90, 30.12, -7.95, -0.14, 0.24, -4.12, -7.58, 12.08, 17.12, 0.14, 0.13, -4.12, -7.63, 12.01, 18.78, 0.14, 0.13, -4.12
-191.00, 202.00, -255.00, 0.25, 0.01, -0.07, 12.88, 3.94, -13.34, 51.36, 2.54, -0.11, 0.29, -4.19, -5.53, 13.98, 17.76, 0.11, 0.18, -4.20, -5.82, 13.87, 18.89, 0.11, 0.18, -4.20
255.00, 32.00, -128.00, 0.07, 0.11, -0.13, 12.50, 3.94, 20.36, 39.33, -1.21, -0.14, 0.29, -4.14, -9.27, 16.08, 18.25, 0.14, 0.19, -4.15, -9.13, 15.98, 18.86, 0.14, 0.19, -4.15
128.00, 180.00, -202.00, 0.13, 0.15, 0.03, 12.50, 3.95, 0.66, 47.31, 3.68, -0.12, 0.25, -4.13, -12.89, 15.20, 16.53, 0.12, 0.14, -4.14, -12.85, 15.25, 18.66, 0.12, 0.14, -4.13
202.00, 222.00, 66.00, 0.08, 0.12, -0.24, 12.38, 3.95, 12.39, 49.44, 11.63, -0.11, 0.28, -4.20, -15.76, 14.56, 17.78, 0.11, 0.18, -4.21, -15.66, 14.58, 18.54, 0.11, 0.18, -4.21
141.00, 191.00, -255.00, -0.18, -0.14, 0.06, 12.38, 3.94, -6.01, 44.71, 4.19, -0.12, 0.27, -4.11, -17.59, 12.04, 18.86, 0.12, 0.17, -4.12, -17.44, 12.12, 18.40, 0.12, 0.17, -4.12
-248.00, -213.00, 113.00, -0.15, 0.00, 0.24, 12.13, 3.94, 3.62, 30.50, -13.56, -0.12, 0.26, -4.17, -17.51, 10.68, 17.62, 0.12, 0.15, -4.18, -17.59, 10.72, 18.33, 0.12, 0.15, -4.18
-223.00, 0.00, 255.00, 0.15, -0.08, -0.23, 12.75, 3.94, 3.19, 37.77, 1.58, -0.11, 0.27, -4.16, -17.14, 6.10, 18.37, 0.11, 0.17, -4.17, -17.16, 6.27, 18.17, 0.11, 0.17, -4.17
223.00, -142.00, -255.00, -0.03, -0.01, -0.15, 12.50, 3.94, 12.55, 20.14, -12.74, -0.12, 0.27, -4.09, -16.61, 4.93, 20.97, 0.12, 0.16, -4.10, -16.41, 4.93, 18.20, 0.12, 0.16, -4.10
-66.00, -32.00, -223.00, 0.20, -0.12, -0.11, 12.13, 3.95, -5.09, 24.82, -4.53, -0.12, 0.29, -4.32, -14.93, 1.64, 19.41, 0.12, 0.19, -4.33, -14.91, 1.73, 18.13, 0.12, 0.19, -4.33
255.00, -191.00, -179.00, 0.01, 0.17, 0.14, 12.38, 3.95, 24.48, 15.97, -14.22, -0.13, 0.26, -3.99, -11.72, 3.52, 20.78, 0.13, 0.16, -4.00, -11.75, 3.36, 18.34, 0.13, 0.16, -4.00
32.00, 240.00, 212.00, -0.08, -0.02, -0.19, 12.75, 3.94, 15.68, 42.18, 14.43, -0.12, 0.27, -4.20, -8.56, 2.78, 17.80, 0.12, 0.16, -4.21, -8.84, 2.78, 18.40, 0.12, 0.16, -4.21
-142.00, -50.00, -255.00, 0.04, 0.05, 0.01, 12.75, 3.95, -1.56, 28.06, -8.36, -0.07, 0.30, -4.21, -6.31, 4.50, 18.56, 0.07, 0.20, -4.22, -6.49, 4.40, 18.52, 0.07, 0.20, -4.22
82.00, 98.00, 32.00, 0.16, -0.18, -0.03, 12.50, 3.96, 18.85, 36.90, 8.46, -0.08, 0.24, -4.10, -5.59, 7.79, 19.02, 0.08, 0.14, -4.11, -5.65, 7.61, 18.64, 0.08, 0.14, -4.11
231.00, -248.00, -66.00, 0.11, -0.07, -0.23, 12.50, 3.96, 36.03, 21.21, -17.28, -0.07, 0.30, -4.22, -6.02, 10.86, 18.62, 0.07, 0.20, -4.23, -6.04, 10.71, 18.78, 0.07, 0.20, -4.23
179.00, -127.00, -255.00, 0.16, 0.05, -0.17, 12.50, 3.94, 18.15, 29.26, -14.85, -0.09, 0.32, -4.17, -7.97, 12.94, 17.09, 0.09, 0.21, -4.18, -8.02, 12.84, 18.81, 0.09, 0.21, -4.18
232.00, 98.00, -240.00, 0.22, 0.08, 0.18, 12.50, 3.94, 12.91, 40.35, -0.03, -0.14, 0.31, -4.23, -7.91, 13.46, 19.63, 0.14, 0.21, -4.24, -7.89, 13.40, 18.87, 0.14, 0.21, -4.24
255.00, 142.00, 248.00, 0.05, 0.22, 0.07, 12.25, 3.93, 31.67, 47.76, 8.73, -0.21, 0.37, -4.21, -10.05, 14.94, 19.05, 0.21, 0.27, -4.22, -9.92, 14.86, 18.88, 0.21, 0.27, -4.22
98.00, 255.00, 128.00, -0.20, 0.15, 0.24, 12.63, 3.94, 10.84, 54.15, 14.28, -0.09, 0.17, -4.10, -13.06, 15.89, 17.46, 0.09, 0.07, -4.11, -12.98, 15.85, 18.75, 0.09, 0.07, -4.11
-255.00, 223.00, 255.00, 0.04, 0.23, 0.22, 12.50, 3.93, -5.16, 56.58, 10.54, -0.10, 0.31, -4.10, -15.23, 12.70, 17.64, 0.10, 0.20, -4.11, -15.18, 12.83, 18.55, 0.10, 0.20, -4.11
83.00, 255.00, 255.00, -0.16, 0.25, -0.02, 12.50, 3.92, 11.24, 52.48, 14.35, -0.13, 0.29, -4.23, -17.18, 12.02, 17.54, 0.13, 0.19, -4.24, -17.15, 12.04, 18.43, 0.13, 0.19, -4.24
-232.00, 255.00, -50.00, 0.07, -0.21, 0.09, 13.00, 3.93, -20.39, 50.53, 9.59, -0.11, 0.24, -4.04, -17.54, 9.28, 16.93, 0.11, 0.13, -4.05, -17.65, 9.40, 18.30, 0.11, 0.13, -4.05
128.00, -255.00, 155.00, -0.20, 0.05, -0.01, 12.75, 3.94, 28.60, 21.08, -11.93, -0.13, 0.30, -4.21, -17.47, 7.84, 20.32, 0.13, 0.19, -4.22, -17.32, 7.86, 18.29, 0.13, 0.19, -4.22
-255.00, 98.00, -32.00, -0.12, -0.01, 0.17, 12.88, 3.95, -14.07, 38.03, 2.69, -0.11, 0.27, -4.13, -16.12, 4.26, 16.81, 0.11, 0.16, -4.14, -16.33, 4.41, 18.16, 0.11, 0.16, -4.14
-191.00, -32.00, 240.00, 0.10, -0.18, 0.18, 12.88, 3.95, 9.40, 30.15, 1.18, -0.13, 0.27, -4.08, -13.47, 1.06, 19.20, 0.13, 0.16, -4.09, -13.58, 1.16, 18.14, 0.13, 0.16, -4.09
167.00, -248.00, 248.00, -0.07, -0.03, 0.13, 12.50, 3.94, 40.15, 17.36, -11.90, -0.14, 0.29, -4.22, -11.74, 2.50, 20.23, 0.14, 0.19, -4.23, -11.70, 2.39, 18.29, 0.14, 0.19, -4.23
-128.00, -66.00, 202.00, 0.20, -0.19, -0.24, 12.75, 3.95, 18.33, 28.08, -1.08, -0.11, 0.28, -4.10, -7.97, 2.51, 17.97, 0.11, 0.18, -4.11, -8.28, 2.48, 18.38, 0.11, 0.18, -4.11
255.00, -255.00, -255.00, -0.19, -0.02, 0.10, 12.75, 3.93, 28.78, 15.38, -22.71, -0.11, 0.27, -4.15, -6.31, 5.53, 20.13, 0.11, 0.17, -4.16, -6.33, 5.35, 18.58, 0.11, 0.17, -4.16
-255.00, -50.00, 168.00, -0.15, 0.19, 0.19, 12.50, 3.93, 11.30, 35.97, -2.12, -0.10, 0.27, -4.21, -5.50, 7.58, 18.03, 0.10, 0.17, -4.22, -5.64, 7.47, 18.67, 0.10, 0.17, -4.22
-223.00, 255.00, 255.00, -0.07, -0.03, -0.01, 12.88, 3.93, 6.83, 53.41, 11.33, -0.11, 0.26, -4.12, -4.05, 8.59, 16.45, 0.11, 0.16, -4.13, -4.39, 8.54, 18.70, 0.11, 0.16, -4.13
-128.00, -67.00, -32.00, 0.01, 0.15, -0.24, 12.75, 3.95, 10.93, 36.66, -4.30, -0.14, 0.30, -4.15, -5.18, 13.86, 16.65, 0.14, 0.19, -4.16, -5.37, 13.63, 18.86, 0.14, 0.19, -4.16
32.00, 222.00, -255.00, -0.20, -0.19, 0.04, 12.38, 3.95, -3.35, 48.87, 5.85, -0.14, 0.27, -4.16, -7.64, 13.57, 18.63, 0.14, 0.17, -4.17, -7.53, 13.56, 18.78, 0.14, 0.17, -4.17
-255.00, -255.00, 82.00, 0.21, -0.04, -0.07, 12.75, 3.94, 10.89, 33.60, -17.79, -0.11, 0.27, -4.14, -9.98, 15.81, 17.09, 0.11, 0.16, -4.15, -9.99, 15.72, 18.75, 0.11, 0.16, -4.15
255.00, -83.00, -128.00, 0.00, 0.24, 0.19, 12.75, 3.94, 20.17, 34.81, -8.32, -0.11, 0.29, -4.14, -14.05, 17.22, 17.61, 0.11, 0.19, -4.15, -13.90, 17.15, 18.69, 0.11, 0.19, -4.15
0.00, 255.00, 255.00, -0.18, 0.01, 0.12, 12.50, 3.94, 7.25, 55.60, 14.24, -0.12, 0.27, -4.12, -16.50, 14.23, 17.15, 0.12, 0.17, -4.13, -16.46, 14.36, 18.46, 0.12, 0.17, -4.13
-248.00, 32.00, 191.00, -0.17, 0.09, -0.04, 12.50, 3.94, -1.87, 44.05, 1.77, -0.12, 0.27, -4.15, -16.76, 11.38, 17.26, 0.12, 0.16, -4.16, -16.86, 11.49, 18.31, 0.12, 0.16, -4.16
-240.00, 155.00, -83.00, -0.17, -0.09, 0.12, 12.50, 3.95, -20.62, 45.91, 4.19, -0.11, 0.28, -4.18, -19.15, 9.83, 16.59, 0.11, 0.18, -4.19, -19.15, 9.90, 18.14, 0.11, 0.18, -4.19
-240.00, -155.00, 191.00, -0.22, 0.15, 0.13, 12.88, 3.94, 5.74, 29.42, -6.96, -0.11, 0.27, -4.13, -17.02, 5.99, 19.57, 0.11, 0.16, -4.14, -17.06, 6.11, 18.08, 0.11, 0.16, -4.14
-255.00, 222.00, 202.00, 0.21, -0.05, 0.23, 12.63, 3.93, -6.74, 46.62, 9.57, -0.11, 0.28, -4.15, -14.63, 3.79, 16.56, 0.10, 0.17, -4.16, -14.93, 3.87, 18.02, 0.11, 0.18, -4.16
255.00, -98.00, 255.00, -0.13, -0.19, -0.01, 12.50, 3.93, 35.75, 22.74, -4.44, -0.13, 0.28, -4.13, -15.62, 1.76, 18.51, 0.13, 0.18, -4.14, -15.52, 1.83, 17.93, 0.13, 0.18, -4.14
-203.00, -255.00, -32.00, -0.16, 0.17, 0.08, 12.63, 3.94, 8.67, 18.36, -15.23, -0.14, 0.29, -4.15, -10.26, 2.82, 20.21, 0.14, 0.18, -4.16, -10.45, 2.71, 18.18, 0.14, 0.18, -4.16
-232.00, 240.00, 142.00, -0.04, -0.22, -0.16, 12.63, 3.94, -1.33, 45.29, 11.20, -0.10, 0.28, -4.12, -7.37, 2.98, 17.07, 0.10, 0.18, -4.13, -7.70, 2.95, 18.25, 0.10, 0.18, -4.13
-83.00, -255.00, -232.00, -0.17, 0.25, -0.16, 12.63, 3.93, 11.43, 18.20, -20.15, -0.10, 0.29, -4.16, -5.63, 5.07, 19.57, 0.10, 0.19, -4.17, -5.69, 4.94, 18.40, 0.10, 0.19, -4.17
-241.00, 255.00, -232.00, 0.02, -0.11, 0.02, 12.88, 3.92, -14.76, 47.41, 5.63, -0.10, 0.27, -4.16, -3.50, 6.29, 18.69, 0.10, 0.17, -4.17, -3.66, 6.21, 18.51, 0.10, 0.17, -4.17
50.00, -180.00, 50.00, 0.15, -0.23, 0.23, 13.00, 3.95, 28.54, 27.05, -9.66, -0.12, 0.27, -4.17, -5.83, 11.09, 16.82, 0.12, 0.17, -4.18, -5.86, 10.89, 18.60, 0.12, 0.17, -4.18
222.00, -255.00, 255.00, -0.15, -0.11, -0.10, 12.75, 3.94, 47.52, 27.39, -13.64, -0.13, 0.30, -4.13, -8.00, 13.22, 20.05, 0.13, 0.20, -4.14, -7.77, 13.09, 18.69, 0.13, 0.20, -4.14
-223.00, -180.00, -168.00, -0.02, -0.22, -0.17, 12.63, 3.93, 1.45, 34.39, -14.98, -0.15, 0.28, -4.16, -7.58, 15.45, 18.27, 0.15, 0.18, -4.17, -7.69, 15.33, 18.77, 0.15, 0.18, -4.17
-50.00, -255.00, -241.00, -0.23, -0.21, 0.19, 12.88, 3.94, 7.59, 28.82, -21.65, -0.11, 0.28, -4.15, -10.93, 16.09, 18.17, 0.11, 0.17, -4.16, -10.79, 16.05, 18.70, 0.11, 0.17, -4.16
-255.00, -255.00, 255.00, -0.12, 0.21, -0.09, 12.88, 3.92, 15.38, 36.00, -14.89, -0.12, 0.29, -4.13, -12.84, 15.45, 19.59, 0.12, 0.18, -4.14, -12.65, 15.44, 18.65, 0.12, 0.18, -4.14
-192.00, 255.00, -155.00, -0.09, -0.02, -0.07, 12.63, 3.92, -22.16, 54.24, 9.06, -0.12, 0.27, -4.13, -17.11, 14.26, 18.44, 0.12, 0.16, -4.14, -16.83, 14.30, 18.48, 0.12, 0.16, -4.14
-155.00, -50.00, -128.00, -0.09, 0.22, 0.11, 12.88, 3.95, -9.15, 36.07, -4.17, -0.11, 0.27, -4.17, -18.71, 12.36, 18.31, 0.11, 0.17, -4.18, -18.61, 12.41, 18.36, 0.11, 0.17, -4.18
-155.00, 255.00, 179.00, -0.04, 0.09, 0.02, 12.63, 3.95, -6.43, 52.08, 13.74, -0.12, 0.28, -4.14, -18.01, 9.90, 17.62, 0.12, 0.18, -4.15, -18.13, 9.98, 18.25, 0.12, 0.18, -4.15
-82.00, 155.00, 50.00, 0.11, -0.05, 0.06, 12.88, 3.95, -3.24, 41.96, 10.06, -0.11, 0.27, -4.15, -16.89, 7.91, 17.96, 0.11, 0.16, -4.16, -17.02, 7.97, 18.20, 0.11, 0.16, -4.16
179.00, -98.00, 113.00, 0.22, 0.22, 0.04, 12.63, 3.96, 22.86, 23.25, -3.86, -0.10, 0.28, -4.15, -18.53, 3.95, 17.78, 0.10, 0.18, -4.16, -18.44, 4.11, 18.00, 0.10, 0.18, -4.16
255.00, 255.00, 82.00, 0.05, -0.22, 0.20, 12.50, 3.95, 15.84, 39.05, 12.50, -0.10, 0.28, -4.11, -14.89, 2.79, 18.27, 0.10, 0.17, -4.12, -15.13, 2.80, 18.04, 0.10, 0.17, -4.12
98.00, -255.00, 255.00, 0.14, 0.06, -0.15, 12.50, 3.93, 35.95, 17.49, -13.46, -0.14, 0.31, -4.16, -12.58, 2.21, 18.62, 0.14, 0.21, -4.17, -12.72, 2.20, 18.11, 0.14, 0.21, -4.17
213.00, 113.00, -223.00, 0.03, -0.15, -0.22, 12.88, 3.94, 12.19, 29.00, -0.18, -0.15, 0.32, -4.15, -7.71, 1.15, 17.64, 0.15, 0.21, -4.15, -8.12, 1.16, 18.22, 0.15, 0.21, -4.15
66.00, -223.00, -255.00, -0.14, -0.11, 0.13, 12.63, 3.94, 16.49, 18.14, -17.03, -0.09, 0.25, -4.14, -6.90, 5.19, 20.78, 0.09, 0.15, -4.15, -6.80, 4.96, 18.42, 0.09, 0.14, -4.15
-213.00, -180.00, 202.00, 0.11, 0.22, -0.06, 12.63, 3.94, 20.42, 29.79, -10.33, -0.07, 0.30, -4.17, -5.39, 7.98, 17.58, 0.07, 0.19, -4.18, -5.59, 7.83, 18.56, 0.07, 0.19, -4.18
180.00, 255.00, -113.00, 0.25, -0.02, -0.14, 12.75, 3.94, 12.44, 46.17, 9.89, -0.07, 0.26, -4.18, -5.42, 10.49, 17.40, 0.06, 0.15, -4.19, -5.56, 10.38, 18.62, 0.07, 0.15, -4.19
255.00, -50.00, -213.00, -0.13, 0.19, -0.15, 12.75, 3.94, 21.48, 31.96, -7.66, -0.04, 0.30, -4.12, -7.68, 12.80, 19.17, 0.04, 0.20, -4.13, -7.53, 12.68, 18.73, 0.04, 0.20, -4.13
-202.00, 255.00, -222.00, -0.08, 0.05, 0.17, 12.63, 3.93, -17.38, 55.07, 5.54, -0.04, 0.39, -4.16, -8.71, 14.79, 17.44, 0.04, 0.28, -4.17, -8.78, 14.68, 18.82, 0.04, 0.28, -4.17
-142.00, 98.00, 241.00, -0.09, -0.15, -0.05, 12.50, 3.94, 10.64, 52.13, 7.40, -0.04, 0.40, -4.17, -9.98, 17.42, 18.03, 0.04, 0.30, -4.17, -10.02, 17.28, 18.96, 0.04, 0.30, -4.17
-155.00, -223.00, -98.00, -0.24, -0.24, 0.12, 12.63, 3.95, 4.19, 33.15, -13.15, -0.00, 0.45, -4.12, -13.43, 17.48, 20.43, 0.00, 0.34, -4.13, -13.13, 17.46, 19.02, 0.00, 0.34, -4.13
-255.00, -255.00, 191.00, 0.04, -0.15, -0.23, 12.63, 3.93, 8.90, 34.87, -15.23, 0.08, 0.35, -4.12, -16.67, 15.55, 19.24, -0.08, 0.25, -4.13, -16.43, 15.61, 18.94, -0.08, 0.25, -4.13
83.00, -223.00, -255.00, -0.14, 0.14, -0.02, 12.63, 3.93, 4.57, 26.44, -18.12, 0.25, 0.37, -4.06, -19.77, 13.62, 19.73, -0.25, 0.26, -4.07, -19.52, 13.69, 19.01, -0.25, 0.26, -4.07
-213.00, 213.00, -50.00, 0.23, -0.01, 0.05, 12.38, 3.94, -18.90, 49.82, 10.17, 0.67, 0.23, -3.99, -18.51, 11.23, 18.93, -0.67, 0.12, -4.00, -18.62, 11.29, 18.70, -0.67, 0.12, -4.00
255.00, -32.00, 98.00, -0.21, 0.03, -0.15, 12.88, 3.95, 21.85, 31.19, 0.32, 1.38, -0.35, -3.97, -20.38, 9.57, 19.41, -1.38, -0.45, -3.98, -20.28, 9.59, 19.24, -1.38, -0.45, -3.98
-255.00, 66.00, -222.00, -0.23, 0.23, -0.15, 12.50, 3.95, -25.91, 38.99, -0.03, 2.66, -1.96, -3.99, -20.84, 7.30, 21.16, -2.66, -2.07, -4.00, -20.97, 7.18, 20.45, -2.66, -2.07, -4.00
-255.00, 255.00, -222.00, -0.23, 0.11, 0.13, 12.75, 3.93, -28.66, 45.63, -1.21, 3.11, 0.05, -0.82, -16.93, 4.12, 11.63, -3.11, -0.05, -0.83, -18.59, 4.02, 13.35, -3.11, -0.05, -0.82
-255.00, 180.00, 203.00, -0.23, -0.09, -0.03, 12.63, 3.92, -6.28, 45.22, 0.60, -0.34, 0.30, 1.39, -15.70, 4.61, 9.35, 0.34, 0.19, 1.39, -16.87, 4.21, 12.83, 0.34, 0.19, 1.39
-255.00, -155.00, -67.00, -0.18, -0.06, -0.08, 12.50, 3.94, -6.07, 30.34, -15.62, -1.32, 0.55, 1.96, -16.70, 9.27, 13.79, 1.32, 0.44, 1.95, -17.10, 8.24, 12.25, 1.32, 0.44, 1.95
-248.00, -113.00, -142.00, -0.03, 0.10, -0.20, 12.63, 3.95, -12.86, 35.30, -5.66, 1.39, 0.88, 1.80, -18.88, 12.65, 22.72, -1.39, 0.78, 1.79, -15.32, 10.36, 13.20, -1.39, 0.78, 1.78
-66.00, 167.00, -255.00, -0.07, 0.08, -0.04, 12.75, 3.95, -16.71, 48.83, 3.84, 1.60, -0.06, 0.29, -17.36, 15.35, 19.15, -1.60, -0.16, 0.28, -15.22, 14.03, 15.42, -1.60, -0.16, 0.28
-128.00, 141.00, -82.00, 0.00, -0.16, -0.17, 12.63, 3.96, -9.68, 49.80, 6.61, -1.10, 0.10, 0.03, -15.28, 16.69, 17.83, 1.10, -0.01, 0.02, -15.13, 15.52, 16.09, 1.10, -0.01, 0.02
0.00, -231.00, -240.00, 0.09, 0.19, 0.08, 12.88, 3.95, 2.16, 29.25, -14.54, -0.17, -0.24, 0.36, -18.40, 16.10, 23.22, 0.17, -0.34, 0.35, -15.57, 15.68, 16.19, 0.16, -0.34, 0.35
155.00, 255.00, 141.00, -0.17, -0.19, -0.18, 12.25, 3.94, 8.81, 53.70, 13.69, -0.02, -0.09, 0.43, -18.87, 15.74, 17.40, 0.02, -0.19, 0.42, -15.79, 15.75, 16.21, 0.02, -0.19, 0.42
-240.00, -255.00, -248.00, 0.07, 0.01, 0.22, 12.63, 3.93, -10.16, 33.03, -20.10, 0.09, -0.29, 0.41, -17.42, 16.91, 22.38, -0.09, -0.39, 0.40, -15.76, 16.13, 16.42, -0.09, -0.39, 0.40
128.00, 32.00, 255.00, 0.25, 0.02, 0.10, 12.38, 3.93, 19.35, 44.34, 7.73, 0.14, -0.15, 0.23, -19.79, 15.80, 21.18, -0.14, -0.26, 0.22, -15.88, 15.99, 16.57, -0.15, -0.26, 0.22
255.00, 50.00, 168.00, -0.24, 0.17, 0.00, 12.75, 3.95, 22.81, 42.97, 6.01, -0.12, 0.04, 0.03, -19.15, 16.27, 20.48, 0.12, -0.06, 0.02, -15.96, 16.03, 16.70, 0.12, -0.06, 0.02
-255.00, 240.00, 0.00, -0.23, 0.09, 0.08, 12.75, 3.94, -18.12, 57.59, 12.73, -0.21, -0.15, 0.21, -16.54, 16.19, 20.22, 0.21, -0.25, 0.20, -15.97, 16.04, 16.81, 0.21, -0.25, 0.20
-255.00, 155.00, 141.00, -0.05, 0.21, 0.08, 12.75, 3.94, -10.07, 53.86, 11.15, -0.19, 0.02, -0.03, -17.67, 15.46, 20.98, 0.19, -0.08, -0.04, -15.96, 15.82, 16.94, 0.19, -0.08, -0.05
-98.00, 255.00, 142.00, -0.10, -0.12, -0.16, 12.50, 3.94, -5.63, 57.44, 15.43, -0.03, 0.02, 0.14, -18.97, 16.83, 18.81, 0.03, -0.08, 0.13, -16.12, 16.15, 16.91, 0.03, -0.08, 0.13
-167.00, -191.00, -232.00, -0.08, 0.11, -0.22, 12.50, 3.94, -8.08, 35.36, -14.91, 0.32, 0.38, -0.29, -17.93, 18.07, 20.75, -0.32, 0.28, -0.30, -16.22, 16.77, 17.07, -0.32, 0.28, -0.30
-141.00, 180.00, -255.00, 0.09, 0.17, 0.10, 12.63, 3.94, -21.32, 48.28, 2.43, 1.35, 0.06, -0.31, -17.27, 13.03, 17.92, -1.35, -0.05, -0.32, -16.40, 15.12, 17.30, -1.35, -0.05, -0.32
155.00, 240.00, 168.00, -0.10, -0.20, 0.07, 12.38, 3.94, 14.82, 50.34, 8.65, 0.69, -0.73, -0.07, -14.52, 12.78, 12.92, -0.69, -0.84, -0.08, -15.85, 13.92, 17.11, -0.69, -0.84, -0.08
-167.00, -255.00, 128.00, -0.11, 0.12, 0.03, 12.88, 3.94, 13.53, 30.77, -22.11, -0.00, -0.35, 0.10, -14.49, 14.37, 10.98, 0.00, -0.46, 0.09, -15.66, 14.03, 17.04, 0.00, -0.46, 0.10
