0.00, 0.00, 0.00, 0.00, 0.00, 0.00, 6.88, 4.03, 4.06, 28.14, 5.67, 0.06, 0.08, -4.08, -18.54, 3.92, 22.63, -0.06, -0.03, -4.09, -18.65, 4.06, 24.01, -0.06, -0.03, -4.09
0.00, 0.00, 0.00, 0.00, 0.00, 0.00, 6.88, 4.03, 6.24, 25.49, 8.11, 0.03, 0.09, -4.26, -16.36, 1.28, 25.07, -0.03, -0.01, -4.27, -16.43, 1.33, 24.02, -0.03, -0.01, -4.27
0.00, 0.00, 0.00, 0.00, 0.00, 0.00, 6.63, 4.03, 8.10, 23.62, 7.83, 0.09, 0.03, -4.06, -14.54, -0.55, 24.92, -0.09, -0.07, -4.07, -14.62, -0.53, 24.02, -0.09, -0.07, -4.07
0.00, 0.00, 0.00, 0.00, 0.00, 0.00, 6.38, 4.03, 11.14, 23.19, 7.78, 0.05, 0.08, -4.22, -11.49, -0.99, 24.81, -0.05, -0.02, -4.23, -11.64, -1.03, 24.01, -0.05, -0.02, -4.23
0.00, 0.00, 0.00, 0.00, 0.00, 0.00, 6.50, 4.03, 14.18, 23.66, 7.64, 0.06, 0.05, -4.14, -8.45, -0.52, 24.68, -0.06, -0.05, -4.15, -8.62, -0.60, 23.97, -0.06, -0.05, -4.15
0.00, 0.00, 0.00, 0.00, 0.00, 0.00, 6.63, 4.03, 16.50, 25.42, 8.29, 0.06, 0.06, -4.09, -6.11, 1.22, 25.30, -0.06, -0.04, -4.10, -6.21, 1.07, 23.93, -0.06, -0.04, -4.10
0.00, 0.00, 0.00, 0.00, 0.00, 0.00, 6.63, 4.03, 17.47, 27.81, 7.12, 0.02, 0.09, -4.31, -5.15, 3.62, 24.13, -0.02, -0.02, -4.32, -5.21, 3.49, 23.93, -0.02, -0.02, -4.32
0.00, 0.00, 0.00, 0.00, 0.00, 0.00, 6.63, 4.03, 17.82, 31.25, 7.82, 0.08, 0.03, -3.93, -4.80, 7.05, 24.83, -0.08, -0.07, -3.94, -4.79, 6.83, 23.87, -0.08, -0.07, -3.94
0.00, 0.00, 0.00, 0.00, 0.00, 0.00, 6.38, 4.03, 17.14, 33.29, 8.23, 0.04, 0.09, -4.36, -5.49, 9.12, 25.29, -0.04, -0.01, -4.37, -5.36, 8.97, 23.90, -0.04, -0.01, -4.37
0.00, 0.00, 0.00, 0.00, 0.00, 0.00, 6.25, 4.03, 15.51, 35.08, 6.14, 0.04, 0.05, -4.08, -7.13, 10.91, 23.23, -0.04, -0.05, -4.09, -7.08, 10.83, 23.88, -0.04, -0.05, -4.09
0.00, 0.00, 0.00, 0.00, 0.00, 0.00, 6.50, 4.03, 13.10, 36.54, 6.58, 0.09, 0.03, -4.00, -9.53, 12.35, 23.61, -0.09, -0.07, -4.01, -9.39, 12.28, 23.89, -0.09, -0.07, -4.01
0.00, 0.00, 0.00, 0.00, 0.00, 0.00, 6.50, 4.03, 10.20, 36.70, 6.36, 0.07, 0.08, -4.38, -12.42, 12.51, 23.39, -0.07, -0.03, -4.39, -12.29, 12.51, 23.93, -0.07, -0.03, -4.38
0.00, 0.00, 0.00, 0.00, 0.00, 0.00, 6.63, 4.03, 7.75, 35.55, 6.27, 0.01, 0.10, -4.02, -14.87, 11.35, 23.28, -0.01, -0.01, -4.03, -14.75, 11.40, 23.93, -0.01, -0.01, -4.03
0.00, 0.00, 0.00, 0.00, 0.00, 0.00, 6.75, 4.03, 5.55, 34.64, 6.58, 0.03, 0.02, -4.26, -17.05, 10.43, 23.56, -0.03, -0.09, -4.27, -16.94, 10.47, 23.94, -0.03, -0.09, -4.27
0.00, 0.00, 0.00, 0.00, 0.00, 0.00, 6.38, 4.03, 4.31, 31.73, 6.61, 0.10, 0.00, -4.29, -18.32, 7.55, 23.67, -0.10, -0.10, -4.30, -18.26, 7.66, 24.02, -0.10, -0.10, -4.30
0.00, 0.00, 0.00, 0.00, 0.00, 0.00, 6.50, 4.03, 4.65, 28.19, 5.83, 0.03, 0.11, -3.98, -17.98, 4.01, 22.87, -0.03, 0.00, -3.98, -18.08, 4.17, 24.01, -0.03, 0.00, -3.98
0.00, 0.00, 0.00, 0.00, 0.00, 0.00, 6.75, 4.03, 6.01, 25.69, 7.63, 0.05, 0.02, -4.34, -16.60, 1.49, 24.61, -0.05, -0.08, -4.35, -16.65, 1.55, 24.04, -0.05, -0.08, -4.35
0.00, 0.00, 0.00, 0.00, 0.00, 0.00, 6.88, 4.03, 8.45, 23.84, 8.89, 0.04, 0.05, -4.00, -14.15, -0.38, 25.84, -0.04, -0.05, -4.01, -14.21, -0.38, 24.07, -0.04, -0.05, -4.01
0.00, 0.00, 0.00, 0.00, 0.00, 0.00, 6.50, 4.03, 11.88, 22.67, 8.07, 0.06, 0.05, -4.23, -10.74, -1.52, 25.10, -0.06, -0.05, -4.24, -10.90, -1.54, 24.05, -0.06, -0.05, -4.24
0.00, 0.00, 0.00, 0.00, 0.00, 0.00, 6.50, 4.03, 14.24, 23.91, 9.38, 0.04, 0.07, -4.16, -8.39, -0.28, 26.42, -0.04, -0.04, -4.17, -8.40, -0.43, 24.05, -0.04, -0.04, -4.17
0.00, 0.00, 0.00, 0.00, 0.00, 0.00, 6.50, 4.03, 16.38, 25.12, 7.91, 0.06, 0.04, -4.08, -6.24, 0.94, 24.94, -0.06, -0.06, -4.09, -6.34, 0.82, 24.01, -0.06, -0.06, -4.09
0.00, 0.00, 0.00, 0.00, 0.00, 0.00, 6.50, 4.03, 17.98, 27.73, 6.83, 0.06, 0.06, -4.28, -4.63, 3.52, 23.81, -0.06, -0.05, -4.29, -4.76, 3.39, 23.96, -0.06, -0.05, -4.29
0.00, 0.00, 0.00, 0.00, 0.00, 0.00, 6.63, 4.03, 18.31, 30.42, 6.78, 0.06, 0.05, -4.00, -4.30, 6.22, 23.79, -0.06, -0.05, -4.01, -4.36, 6.07, 23.92, -0.06, -0.05, -4.01
0.00, 0.00, 0.00, 0.00, 0.00, 0.00, 6.75, 4.03, 16.08, 33.12, 6.53, 0.06, 0.06, -4.29, -6.53, 8.91, 23.52, -0.06, -0.05, -4.30, -6.43, 8.80, 23.92, -0.06, -0.05, -4.30
0.00, 0.00, 0.00, 0.00, 0.00, 0.00, 6.50, 4.03, 15.13, 35.94, 6.71, 0.06, 0.05, -4.07, -7.50, 11.75, 23.74, -0.06, -0.05, -4.08, -7.46, 11.60, 23.89, -0.06, -0.05, -4.08
0.00, 0.00, 0.00, 0.00, 0.00, 0.00, 6.75, 4.03, 12.53, 36.55, 6.27, 0.09, 0.05, -4.16, -10.08, 12.35, 23.25, -0.09, -0.06, -4.17, -9.97, 12.33, 23.92, -0.09, -0.06, -4.17
0.00, 0.00, 0.00, 0.00, 0.00, 0.00, 6.63, 4.03, 9.70, 36.90, 5.88, 0.04, 0.10, -4.34, -12.91, 12.71, 22.88, -0.04, -0.00, -4.35, -12.82, 12.71, 23.93, -0.04, -0.00, -4.35
0.00, 0.00, 0.00, 0.00, 0.00, 0.00, 6.88, 4.03, 7.42, 35.93, 5.83, 0.07, 0.04, -3.91, -15.17, 11.71, 22.79, -0.07, -0.07, -3.92, -15.09, 11.77, 23.94, -0.07, -0.07, -3.92
0.00, 0.00, 0.00, 0.00, 0.00, 0.00, 6.88, 4.03, 5.33, 34.36, 7.45, 0.04, 0.09, -4.43, -17.26, 10.15, 24.41, -0.04, -0.01, -4.44, -17.11, 10.18, 23.99, -0.04, -0.01, -4.44
0.00, 0.00, 0.00, 0.00, 0.00, 0.00, 6.38, 4.03, 4.41, 31.96, 7.53, 0.03, 0.07, -3.93, -18.22, 7.79, 24.59, -0.03, -0.03, -3.94, -18.10, 7.85, 24.02, -0.03, -0.03, -3.94
0.00, 0.00, 0.00, 0.00, 0.00, 0.00, 6.63, 4.03, 5.10, 27.87, 7.25, 0.06, 0.04, -4.27, -17.51, 3.68, 24.26, -0.06, -0.07, -4.28, -17.54, 3.82, 24.06, -0.06, -0.07, -4.28
0.00, 0.00, 0.00, 0.00, 0.00, 0.00, 6.63, 4.03, 6.02, 25.36, 8.71, 0.01, 0.08, -4.13, -16.59, 1.16, 25.72, -0.01, -0.02, -4.14, -16.54, 1.20, 24.11, -0.01, -0.02, -4.14
0.00, 0.00, 0.00, 0.00, 0.00, 0.00, 6.38, 4.03, 9.30, 23.76, 8.04, 0.07, 0.03, -4.06, -13.34, -0.41, 25.10, -0.07, -0.08, -4.07, -13.50, -0.41, 24.09, -0.07, -0.08, -4.07
0.00, 0.00, 0.00, 0.00, 0.00, 0.00, 6.38, 4.03, 12.01, 22.81, 7.70, 0.04, 0.06, -4.31, -10.62, -1.36, 24.76, -0.04, -0.04, -4.32, -10.75, -1.38, 24.09, -0.04, -0.04, -4.32
0.00, 0.00, 0.00, 0.00, 0.00, 0.00, 6.75, 4.03, 15.19, 23.12, 8.78, 0.04, 0.05, -3.99, -7.42, -1.08, 25.77, -0.05, -0.06, -4.00, -7.55, -1.18, 24.07, -0.05, -0.06, -4.00
0.00, 0.00, 0.00, 0.00, 0.00, 0.00, 6.75, 4.03, 17.01, 25.75, 7.98, 0.08, 0.03, -4.29, -5.59, 1.55, 24.96, -0.08, -0.08, -4.30, -5.67, 1.38, 24.01, -0.08, -0.08, -4.30
0.00, 0.00, 0.00, 0.00, 0.00, 0.00, 6.25, 4.03, 18.24, 27.96, 7.95, 0.05, 0.07, -4.06, -4.40, 3.79, 25.04, -0.05, -0.03, -4.07, -4.43, 3.63, 23.99, -0.05, -0.03, -4.07
0.00, 0.00, 0.00, 0.00, 0.00, 0.00, 6.63, 4.03, 17.39, 30.94, 8.16, 0.10, 0.03, -4.16, -5.22, 6.75, 25.16, -0.10, -0.07, -4.17, -5.11, 6.56, 23.97, -0.10, -0.07, -4.17
0.00, 0.00, 0.00, 0.00, 0.00, 0.00, 6.63, 4.03, 16.97, 33.82, 6.12, 0.07, 0.07, -4.21, -5.62, 9.60, 23.06, -0.07, -0.03, -4.22, -5.67, 9.48, 23.95, -0.07, -0.03, -4.22
0.00, 0.00, 0.00, 0.00, 0.00, 0.00, 6.75, 4.03, 15.73, 35.41, 6.94, 0.06, 0.08, -4.07, -6.89, 11.22, 23.95, -0.06, -0.02, -4.08, -6.83, 11.12, 23.96, -0.06, -0.02, -4.08
0.00, 0.00, 0.00, 0.00, 0.00, 0.00, 6.38, 4.03, 12.74, 36.50, 7.07, 0.09, 0.06, -4.25, -9.89, 12.32, 24.13, -0.09, -0.04, -4.26, -9.70, 12.25, 24.01, -0.09, -0.04, -4.26
0.00, 0.00, 0.00, 0.00, 0.00, 0.00, 6.63, 4.02, 10.11, 37.23, 6.72, 0.03, 0.10, -4.20, -12.50, 13.03, 23.73, -0.03, -0.01, -4.21, -12.36, 12.99, 24.03, -0.03, -0.01, -4.21
0.00, 0.00, 0.00, 0.00, 0.00, 0.00, 6.38, 4.03, 7.59, 36.09, 7.28, 0.09, 0.04, -4.09, -15.05, 11.91, 24.34, -0.09, -0.06, -4.09, -14.86, 11.93, 24.09, -0.09, -0.06, -4.10
0.00, 0.00, 0.00, 0.00, 0.00, 0.00, 6.25, 4.03, 5.82, 33.72, 7.51, 0.03, 0.09, -4.26, -16.82, 9.55, 24.60, -0.03, -0.01, -4.26, -16.67, 9.61, 24.13, -0.03, -0.01, -4.26
0.00, 0.00, 0.00, 0.00, 0.00, 0.00, 6.50, 4.03, 4.93, 31.07, 5.93, 0.07, 0.06, -4.07, -17.70, 6.89, 22.97, -0.07, -0.05, -4.08, -17.71, 7.02, 24.13, -0.07, -0.05, -4.08
0.00, 0.00, 0.00, 0.00, 0.00, 0.00, 6.63, 4.03, 4.97, 28.14, 6.77, 0.03, 0.07, -4.20, -17.65, 3.94, 23.78, -0.03, -0.04, -4.21, -17.68, 4.05, 24.15, -0.03, -0.04, -4.21
0.00, 0.00, 0.00, 0.00, 0.00, 0.00, 6.38, 4.03, 6.02, 25.75, 7.51, 0.02, 0.07, -4.14, -16.61, 1.57, 24.57, -0.02, -0.04, -4.15, -16.65, 1.64, 24.17, -0.02, -0.04, -4.15
0.00, 0.00, 0.00, 0.00, 0.00, 0.00, 6.63, 4.03, 9.37, 23.30, 6.75, 0.04, 0.04, -4.12, -13.25, -0.90, 23.76, -0.04, -0.07, -4.13, -13.51, -0.81, 24.17, -0.04, -0.07, -4.13
0.00, 0.00, 0.00, 0.00, 0.00, 0.00, 6.63, 4.03, 12.36, 22.62, 8.17, 0.04, 0.05, -4.21, -10.25, -1.57, 25.18, -0.04, -0.06, -4.22, -10.40, -1.60, 24.17, -0.04, -0.06, -4.22
0.00, 0.00, 0.00, 0.00, 0.00, 0.00, 6.50, 4.03, 14.41, 24.45, 8.04, 0.05, 0.03, -4.09, -8.21, 0.27, 25.07, -0.05, -0.07, -4.10, -8.30, 0.12, 24.13, -0.05, -0.07, -4.10
0.00, 0.00, 0.00, 0.00, 0.00, 0.00, 6.25, 4.03, 17.33, 26.00, 6.52, 0.07, 0.03, -4.21, -5.31, 1.83, 23.61, -0.07, -0.07, -4.22, -5.55, 1.75, 24.05, -0.07, -0.07, -4.22
0.00, 0.00, 0.00, 0.00, 0.00, 0.00, 6.38, 4.03, 19.13, 28.21, 7.37, 0.05, 0.05, -4.12, -3.50, 4.03, 24.43, -0.05, -0.05, -4.13, -3.63, 3.89, 24.01, -0.05, -0.05, -4.13
0.00, 0.00, 0.00, 0.00, 0.00, 0.00, 6.88, 4.03, 18.23, 31.48, 7.60, 0.06, 0.04, -4.16, -4.37, 7.27, 24.56, -0.06, -0.06, -4.17, -4.30, 7.09, 23.98, -0.06, -0.06, -4.17
0.00, 0.00, 0.00, 0.00, 0.00, 0.00, 6.63, 4.03, 17.36, 33.40, 5.39, 0.05, 0.06, -4.19, -5.25, 9.20, 22.40, -0.05, -0.04, -4.20, -5.32, 9.14, 23.95, -0.05, -0.04, -4.20
0.00, 0.00, 0.00, 0.00, 0.00, 0.00, 6.25, 4.03, 15.04, 35.41, 6.74, 0.06, 0.05, -4.05, -7.60, 11.24, 23.82, -0.06, -0.05, -4.06, -7.47, 11.14, 23.96, -0.06, -0.05, -4.06
0.00, 0.00, 0.00, 0.00, 0.00, 0.00, 6.38, 4.03, 12.63, 36.48, 6.39, 0.07, 0.06, -4.35, -10.00, 12.30, 23.45, -0.07, -0.04, -4.36, -9.90, 12.26, 23.98, -0.07, -0.04, -4.36
0.00, 0.00, 0.00, 0.00, 0.00, 0.00, 6.50, 4.03, 10.16, 37.02, 5.12, 0.02, 0.07, -3.98, -12.47, 12.83, 22.15, -0.02, -0.03, -3.99, -12.43, 12.84, 23.95, -0.02, -0.03, -3.99
0.00, 0.00, 0.00, 0.00, 0.00, 0.00, 6.75, 4.03, 8.05, 36.03, 7.02, 0.09, 0.04, -4.27, -14.55, 11.82, 24.00, -0.09, -0.07, -4.28, -14.43, 11.85, 24.00, -0.09, -0.07, -4.28
0.00, 0.00, 0.00, 0.00, 0.00, 0.00, 6.38, 4.03, 5.69, 34.04, 7.26, 0.00, 0.10, -4.14, -16.95, 9.86, 24.32, -0.00, -0.01, -4.15, -16.76, 9.92, 24.02, -0.00, -0.01, -4.15
0.00, 0.00, 0.00, 0.00, 0.00, 0.00, 6.25, 4.03, 4.60, 31.44, 6.18, 0.04, 0.04, -4.08, -18.04, 7.27, 23.27, -0.04, -0.06, -4.09, -18.01, 7.39, 24.04, -0.04, -0.06, -4.09
0.00, 0.00, 0.00, 0.00, 0.00, 0.00, 6.13, 4.03, 4.52, 28.03, 6.75, 0.04, 0.04, -4.29, -18.13, 3.87, 23.86, -0.04, -0.07, -4.30, -18.14, 4.00, 24.09, -0.04, -0.07, -4.30
0.00, 0.00, 0.00, 0.00, 0.00, 0.00, 6.50, 4.03, 6.12, 25.65, 6.88, 0.03, 0.04, -4.04, -16.50, 1.46, 23.92, -0.04, -0.07, -4.05, -16.63, 1.55, 24.11, -0.03, -0.07, -4.05
0.00, 0.00, 0.00, 0.00, 0.00, 0.00, 6.13, 4.03, 9.28, 23.38, 7.40, 0.05, 0.03, -4.22, -13.37, -0.77, 24.51, -0.05, -0.07, -4.23, -13.56, -0.73, 24.12, -0.05, -0.07, -4.23
0.00, 0.00, 0.00, 0.00, 0.00, 0.00, 6.13, 4.03, 11.94, 23.25, 8.21, 0.02, 0.05, -4.14, -10.71, -0.91, 25.33, -0.02, -0.05, -4.15, -10.82, -0.97, 24.12, -0.02, -0.05, -4.15
0.00, 0.00, 0.00, 0.00, 0.00, 0.00, 6.00, 4.03, 15.01, 24.45, 8.23, 0.06, 0.02, -4.14, -7.65, 0.30, 25.37, -0.06, -0.08, -4.14, -7.78, 0.17, 24.07, -0.06, -0.08, -4.14
0.00, 0.00, 0.00, 0.00, 0.00, 0.00, 6.50, 4.03, 17.26, 25.61, 7.10, 0.05, 0.05, -4.21, -5.36, 1.42, 24.14, -0.05, -0.06, -4.22, -5.53, 1.34, 24.03, -0.05, -0.06, -4.22
0.00, 0.00, 0.00, 0.00, 0.00, 0.00, 6.63, 4.03, 17.70, 28.37, 7.37, 0.05, 0.05, -4.09, -4.92, 4.17, 24.38, -0.05, -0.05, -4.09, -4.95, 4.02, 24.00, -0.05, -0.05, -4.09
0.00, 0.00, 0.00, 0.00, 0.00, 0.00, 6.63, 4.03, 17.07, 31.26, 6.49, 0.06, 0.06, -4.21, -5.54, 7.07, 23.50, -0.06, -0.05, -4.22, -5.55, 6.94, 23.97, -0.06, -0.05, -4.22
0.00, 0.00, 0.00, 0.00, 0.00, 0.00, 6.63, 4.03, 17.06, 33.67, 5.41, 0.08, 0.04, -4.12, -5.56, 9.48, 22.42, -0.08, -0.07, -4.13, -5.68, 9.40, 23.91, -0.08, -0.07, -4.13
0.00, 0.00, 0.00, 0.00, 0.00, 0.00, 6.38, 4.03, 15.00, 35.47, 7.34, 0.05, 0.07, -4.10, -7.64, 11.29, 24.40, -0.05, -0.04, -4.11, -7.49, 11.18, 23.93, -0.05, -0.04, -4.11
0.00, 0.00, 0.00, 0.00, 0.00, 0.00, 6.13, 4.03, 12.45, 36.98, 7.00, 0.05, 0.08, -4.33, -10.20, 12.82, 24.11, -0.05, -0.02, -4.34, -10.04, 12.73, 23.96, -0.05, -0.02, -4.34
0.00, 0.00, 0.00, 0.00, 0.00, 0.00, 6.50, 4.03, 10.07, 36.93, 6.33, 0.03, 0.07, -3.99, -12.55, 12.75, 23.36, -0.03, -0.04, -4.00, -12.44, 12.74, 23.96, -0.03, -0.04, -4.00
0.00, 0.00, 0.00, 0.00, 0.00, 0.00, 6.25, 4.02, 6.85, 36.01, 6.30, 0.05, 0.05, -4.31, -15.79, 11.84, 23.39, -0.05, -0.05, -4.32, -15.63, 11.89, 23.99, -0.05, -0.05, -4.32
0.00, 0.00, 0.00, 0.00, 0.00, 0.00, 6.13, 4.03, 4.88, 33.62, 6.99, 0.04, 0.06, -4.09, -17.77, 9.46, 24.10, -0.04, -0.04, -4.10, -17.62, 9.54, 24.03, -0.04, -0.04, -4.10
0.00, 0.00, 0.00, 0.00, 0.00, 0.00, 6.50, 4.03, 5.04, 30.78, 5.86, 0.05, 0.05, -4.14, -17.58, 6.59, 22.90, -0.05, -0.05, -4.15, -17.67, 6.73, 24.04, -0.05, -0.05, -4.15
0.00, 0.00, 0.00, 0.00, 0.00, 0.00, 6.50, 4.03, 4.95, 28.44, 7.13, 0.04, 0.07, -4.22, -17.67, 4.26, 24.17, -0.04, -0.03, -4.23, -17.66, 4.33, 24.06, -0.04, -0.03, -4.23
0.00, 0.00, 0.00, 0.00, 0.00, 0.00, 6.25, 4.03, 6.68, 25.55, 7.16, 0.06, 0.04, -4.04, -15.94, 1.36, 24.20, -0.06, -0.06, -4.05, -16.06, 1.46, 24.07, -0.06, -0.06, -4.05
0.00, 0.00, 0.00, 0.00, 0.00, 0.00, 6.38, 4.03, 9.43, 23.65, 7.82, 0.05, 0.05, -4.25, -13.20, -0.53, 24.88, -0.05, -0.05, -4.26, -13.34, -0.51, 24.08, -0.05, -0.05, -4.26
0.00, 0.00, 0.00, 0.00, 0.00, 0.00, 6.25, 4.03, 11.91, 23.46, 8.90, 0.04, 0.06, -4.07, -10.73, -0.71, 25.99, -0.04, -0.05, -4.08, -10.78, -0.79, 24.08, -0.04, -0.05, -4.08
0.00, 0.00, 0.00, 0.00, 0.00, 0.00, 6.63, 4.03, 14.82, 23.84, 6.97, 0.06, 0.04, -4.17, -7.79, -0.36, 23.98, -0.06, -0.07, -4.18, -8.01, -0.40, 24.03, -0.06, -0.07, -4.18
0.00, 0.00, 0.00, 0.00, 0.00, 0.00, 6.38, 4.03, 17.51, 25.45, 6.46, 0.03, 0.07, -4.19, -5.12, 1.27, 23.52, -0.03, -0.04, -4.20, -5.36, 1.18, 24.00, -0.03, -0.04, -4.20
0.00, 0.00, 0.00, 0.00, 0.00, 0.00, 6.13, 4.03, 17.77, 28.35, 7.41, 0.10, 0.00, -4.08, -4.88, 4.19, 24.52, -0.10, -0.10, -4.09, -4.88, 4.02, 23.92, -0.10, -0.10, -4.09
0.00, 0.00, 0.00, 0.00, 0.00, 0.00, 6.50, 4.03, 17.13, 31.51, 6.45, 0.09, 0.07, -4.20, -5.49, 7.32, 23.48, -0.09, -0.04, -4.21, -5.50, 7.18, 23.91, -0.09, -0.04, -4.21
0.00, 0.00, 0.00, 0.00, 0.00, 0.00, 6.50, 4.03, 16.59, 33.75, 5.88, 0.11, 0.05, -4.07, -6.03, 9.56, 22.91, -0.11, -0.06, -4.08, -6.08, 9.47, 23.88, -0.11, -0.06, -4.08
0.00, 0.00, 0.00, 0.00, 0.00, 0.00, 6.63, 4.03, 14.24, 35.55, 6.18, 0.11, 0.08, -4.22, -8.38, 11.35, 23.19, -0.11, -0.02, -4.23, -8.29, 11.28, 23.92, -0.11, -0.02, -4.23
0.00, 0.00, 0.00, 0.00, 0.00, 0.00, 6.13, 4.03, 11.66, 36.86, 5.96, 0.06, 0.08, -4.16, -10.98, 12.70, 23.08, -0.06, -0.02, -4.17, -10.88, 12.65, 23.93, -0.06, -0.02, -4.17
0.00, 0.00, 0.00, 0.00, 0.00, 0.00, 6.50, 4.03, 9.50, 36.01, 6.07, 0.02, 0.12, -4.17, -13.12, 11.83, 23.10, -0.02, 0.01, -4.18, -13.05, 11.86, 23.93, -0.02, 0.01, -4.18
0.00, 0.00, 0.00, 0.00, 0.00, 0.00, 6.38, 4.03, 7.12, 36.35, 6.66, 0.08, 0.09, -4.12, -15.51, 12.17, 23.73, -0.08, -0.02, -4.13, -15.38, 12.14, 23.96, -0.08, -0.02, -4.13
0.00, 0.00, 0.00, 0.00, 0.00, 0.00, 6.63, 4.03, 5.26, 34.00, 6.61, 0.05, 0.07, -4.22, -17.35, 9.80, 23.62, -0.05, -0.03, -4.23, -17.26, 9.89, 23.98, -0.05, -0.03, -4.23
0.00, 0.00, 0.00, 0.00, 0.00, 0.00, 6.63, 4.02, 4.75, 30.81, 7.15, 0.05, 0.07, -4.29, -17.87, 6.61, 24.16, -0.05, -0.04, -4.30, -17.82, 6.72, 24.01, -0.05, -0.04, -4.30
0.00, 0.00, 0.00, 0.00, 0.00, 0.00, 6.38, 4.03, 4.78, 27.71, 7.70, 0.06, 0.07, -4.00, -17.85, 3.53, 24.76, -0.06, -0.04, -4.01, -17.80, 3.63, 24.05, -0.06, -0.04, -4.01
0.00, 0.00, 0.00, 0.00, 0.00, 0.00, 6.38, 4.03, 7.09, 24.96, 7.00, 0.06, 0.07, -4.29, -15.54, 0.79, 24.06, -0.06, -0.04, -4.30, -15.69, 0.87, 24.04, -0.06, -0.04, -4.30
0.00, 0.00, 0.00, 0.00, 0.00, 0.00, 6.50, 4.03, 9.19, 23.56, 7.54, 0.04, 0.07, -4.06, -13.43, -0.63, 24.58, -0.04, -0.03, -4.07, -13.55, -0.61, 24.04, -0.04, -0.03, -4.07
0.00, 0.00, 0.00, 0.00, 0.00, 0.00, 6.13, 4.03, 11.84, 23.11, 7.85, 0.07, 0.04, -4.16, -10.78, -1.08, 24.88, -0.07, -0.06, -4.17, -10.92, -1.12, 24.01, -0.07, -0.06, -4.17
0.00, 0.00, 0.00, 0.00, 0.00, 0.00, 6.13, 4.02, 14.32, 24.45, 6.83, 0.04, 0.07, -4.22, -8.32, 0.29, 23.94, -0.05, -0.03, -4.23, -8.51, 0.20, 23.98, -0.04, -0.03, -4.23
0.00, 0.00, 0.00, 0.00, 0.00, 0.00, 6.25, 4.03, 16.59, 26.09, 8.20, 0.07, 0.04, -4.07, -6.05, 1.92, 25.29, -0.07, -0.06, -4.08, -6.15, 1.77, 23.93, -0.07, -0.06, -4.08
0.00, 0.00, 0.00, 0.00, 0.00, 0.00, 6.38, 4.03, 17.57, 28.90, 6.72, 0.11, 0.04, -4.27, -5.06, 4.72, 23.78, -0.11, -0.06, -4.28, -5.15, 4.58, 23.87, -0.11, -0.06, -4.27
0.00, 0.00, 0.00, 0.00, 0.00, 0.00, 6.38, 4.03, 17.32, 31.63, 5.96, 0.07, 0.08, -4.04, -5.31, 7.45, 23.02, -0.07, -0.02, -4.05, -5.38, 7.32, 23.85, -0.07, -0.02, -4.05
0.00, 0.00, 0.00, 0.00, 0.00, 0.00, 6.50, 4.03, 16.25, 34.33, 7.45, 0.09, 0.06, -4.20, -6.37, 10.15, 24.49, -0.09, -0.04, -4.21, -6.29, 9.99, 23.85, -0.09, -0.04, -4.21
0.00, 0.00, 0.00, 0.00, 0.00, 0.00, 6.50, 4.03, 14.37, 35.41, 6.58, 0.10, 0.07, -4.18, -8.26, 11.23, 23.61, -0.10, -0.04, -4.19, -8.16, 11.17, 23.88, -0.10, -0.04, -4.19
0.00, 0.00, 0.00, 0.00, 0.00, 0.00, 6.50, 4.03, 12.03, 37.04, 5.01, 0.07, 0.09, -4.14, -10.59, 12.85, 22.05, -0.07, -0.01, -4.15, -10.58, 12.81, 23.88, -0.07, -0.01, -4.15
0.00, 0.00, 0.00, 0.00, 0.00, 0.00, 6.50, 4.03, 9.75, 37.17, 6.07, 0.02, 0.12, -4.21, -12.87, 12.98, 23.10, -0.02, 0.01, -4.22, -12.80, 12.97, 23.88, -0.02, 0.01, -4.22
0.00, 0.00, 0.00, 0.00, 0.00, 0.00, 6.38, 4.03, 6.80, 35.56, 5.77, 0.03, 0.07, -4.11, -15.84, 11.38, 22.83, -0.03, -0.04, -4.12, -15.71, 11.47, 23.87, -0.03, -0.04, -4.12
0.00, 0.00, 0.00, 0.00, 0.00, 0.00, 6.63, 4.03, 5.04, 33.32, 6.40, 0.05, 0.06, -4.19, -17.57, 9.13, 23.41, -0.05, -0.04, -4.20, -17.49, 9.22, 23.90, -0.05, -0.04, -4.20
0.00, 0.00, 0.00, 0.00, 0.00, 0.00, 6.50, 4.03, 5.16, 31.19, 7.79, 0.04, 0.06, -4.15, -17.46, 7.00, 24.83, -0.04, -0.05, -4.15, -17.41, 7.04, 23.94, -0.04, -0.05, -4.15
0.00, 0.00, 0.00, 0.00, 0.00, 0.00, 6.50, 4.03, 5.14, 27.89, 7.19, 0.03, 0.07, -4.15, -17.48, 3.70, 24.23, -0.03, -0.04, -4.16, -17.46, 3.81, 23.97, -0.03, -0.04, -4.16
0.00, 0.00, 0.00, 0.00, 0.00, 0.00, 6.25, 4.03, 7.42, 24.25, 7.18, 0.03, 0.04, -4.18, -15.22, 0.08, 24.26, -0.03, -0.06, -4.19, -15.35, 0.20, 24.01, -0.03, -0.06, -4.19
0.00, 0.00, 0.00, 0.00, 0.00, 0.00, 6.75, 4.03, 9.32, 23.44, 7.64, 0.04, 0.04, -4.12, -13.28, -0.76, 24.63, -0.04, -0.07, -4.13, -13.38, -0.77, 24.01, -0.04, -0.07, -4.13
0.00, 0.00, 0.00, 0.00, 0.00, 0.00, 6.25, 4.03, 12.39, 23.08, 6.24, 0.04, 0.03, -4.19, -10.25, -1.09, 23.33, -0.04, -0.07, -4.20, -10.50, -1.09, 23.98, -0.04, -0.07, -4.20
0.00, 0.00, 0.00, 0.00, 0.00, 0.00, 6.38, 4.03, 15.27, 23.66, 6.97, 0.05, 0.04, -4.13, -7.36, -0.52, 24.03, -0.05, -0.07, -4.13, -7.57, -0.57, 23.94, -0.05, -0.07, -4.13
0.00, 0.00, 0.00, 0.00, 0.00, 0.00, 6.50, 4.03, 16.92, 26.00, 8.32, 0.06, 0.04, -4.17, -5.70, 1.81, 25.35, -0.06, -0.07, -4.18, -5.74, 1.64, 23.90, -0.06, -0.07, -4.18
0.00, 0.00, 0.00, 0.00, 0.00, 0.00, 6.63, 4.03, 18.21, 28.22, 6.68, 0.05, 0.04, -4.13, -4.40, 4.03, 23.69, -0.05, -0.07, -4.14, -4.52, 3.91, 23.85, -0.05, -0.07, -4.14
0.00, 0.00, 0.00, 0.00, 0.00, 0.00, 6.75, 4.03, 17.73, 31.58, 6.37, 0.08, 0.03, -4.12, -4.88, 7.38, 23.36, -0.08, -0.08, -4.13, -4.90, 7.22, 23.79, -0.08, -0.08, -4.13
0.00, 0.00, 0.00, 0.00, 0.00, 0.00, 6.88, 4.03, 16.16, 33.76, 7.59, 0.07, 0.05, -4.20, -6.47, 9.58, 24.65, -0.07, -0.05, -4.21, -6.33, 9.45, 23.81, -0.07, -0.05, -4.21
0.00, 0.00, 0.00, 0.00, 0.00, 0.00, 6.38, 4.03, 14.60, 35.38, 5.73, 0.09, 0.05, -4.14, -8.03, 11.21, 22.79, -0.09, -0.05, -4.15, -8.00, 11.15, 23.80, -0.09, -0.05, -4.15
0.00, 0.00, 0.00, 0.00, 0.00, 0.00, 6.50, 4.03, 11.72, 37.02, 6.15, 0.07, 0.07, -4.19, -10.90, 12.83, 23.19, -0.07, -0.03, -4.20, -10.77, 12.77, 23.83, -0.07, -0.03, -4.20
0.00, 0.00, 0.00, 0.00, 0.00, 0.00, 6.50, 4.03, 9.50, 36.32, 6.34, 0.05, 0.08, -4.17, -13.12, 12.13, 23.38, -0.05, -0.02, -4.18, -13.02, 12.16, 23.85, -0.05, -0.02, -4.18
0.00, 0.00, 0.00, 0.00, 0.00, 0.00, 6.38, 4.03, 7.12, 35.47, 5.50, 0.05, 0.08, -4.15, -15.51, 11.29, 22.56, -0.05, -0.03, -4.16, -15.45, 11.35, 23.85, -0.05, -0.03, -4.16
0.00, 0.00, 0.00, 0.00, 0.00, 0.00, 6.75, 4.03, 5.33, 32.77, 6.75, 0.06, 0.06, -4.18, -17.27, 8.56, 23.74, -0.06, -0.04, -4.19, -17.17, 8.67, 23.89, -0.06, -0.04, -4.19
0.00, 0.00, 0.00, 0.00, 0.00, 0.00, 6.38, 4.03, 4.50, 31.32, 7.32, 0.04, 0.07, -4.11, -18.13, 7.14, 24.38, -0.04, -0.04, -4.12, -18.04, 7.17, 23.92, -0.04, -0.04, -4.12
0.00, 0.00, 0.00, 0.00, 0.00, 0.00, 6.38, 4.03, 4.53, 27.38, 5.95, 0.06, 0.04, -4.19, -18.10, 3.20, 23.01, -0.06, -0.06, -4.20, -18.16, 3.37, 23.95, -0.06, -0.06, -4.20
0.00, 0.00, 0.00, 0.00, 0.00, 0.00, 6.63, 4.03, 7.61, 24.71, 6.64, 0.06, 0.06, -4.13, -15.00, 0.52, 23.64, -0.06, -0.05, -4.14, -15.24, 0.61, 23.93, -0.06, -0.05, -4.14
0.00, 0.00, 0.00, 0.00, 0.00, 0.00, 6.25, 4.03, 9.30, 23.50, 7.97, 0.06, 0.05, -4.15, -13.34, -0.67, 25.05, -0.06, -0.05, -4.16, -13.39, -0.68, 23.94, -0.06, -0.05, -4.16
0.00, 0.00, 0.00, 0.00, 0.00, 0.00, 6.50, 4.03, 12.98, 23.12, 6.40, 0.06, 0.05, -4.16, -9.64, -1.06, 23.44, -0.06, -0.05, -4.17, -9.94, -1.07, 23.89, -0.06, -0.05, -4.17
0.00, 0.00, 0.00, 0.00, 0.00, 0.00, 6.25, 4.03, 14.82, 24.36, 6.97, 0.10, 0.04, -4.12, -7.82, 0.20, 24.06, -0.10, -0.06, -4.13, -7.96, 0.10, 23.82, -0.10, -0.06, -4.13
0.00, 0.00, 0.00, 0.00, 0.00, 0.00, 6.63, 4.03, 16.66, 26.32, 7.26, 0.14, 0.05, -4.16, -5.95, 2.13, 24.27, -0.14, -0.05, -4.17, -6.07, 2.00, 23.75, -0.14, -0.05, -4.17
0.00, 0.00, 0.00, 0.00, 0.00, 0.00, 6.50, 4.03, 17.35, 28.73, 5.61, 0.15, 0.07, -4.12, -5.27, 4.55, 22.65, -0.15, -0.03, -4.13, -5.40, 4.44, 23.69, -0.15, -0.03, -4.13
0.00, 0.00, 0.00, 0.00, 0.00, 0.00, 6.75, 4.03, 17.70, 31.28, 7.51, 0.04, 0.17, -4.21, -4.91, 7.07, 24.50, -0.04, 0.07, -4.22, -4.91, 6.93, 23.75, -0.04, 0.07, -4.22
0.00, 0.00, 0.00, 0.00, 0.00, 0.00, 6.38, 4.03, 16.00, 34.17, 5.31, 0.04, 0.11, -4.11, -6.63, 9.99, 22.37, -0.04, 0.01, -4.12, -6.63, 9.88, 23.74, -0.04, 0.01, -4.12
0.00, 0.00, 0.00, 0.00, 0.00, 0.00, 6.38, 4.03, 14.35, 35.27, 5.58, 0.14, 0.05, -4.16, -8.28, 11.09, 22.64, -0.14, -0.05, -4.17, -8.25, 11.06, 23.74, -0.14, -0.05, -4.17
0.00, 0.00, 0.00, 0.00, 0.00, 0.00, 6.38, 4.03, 11.43, 36.79, 6.81, 0.13, 0.08, -4.13, -11.20, 12.61, 23.87, -0.13, -0.02, -4.14, -11.02, 12.53, 23.83, -0.13, -0.02, -4.14
0.00, 0.00, 0.00, 0.00, 0.00, 0.00, 6.38, 4.03, 9.44, 37.01, 6.53, 0.06, 0.14, -4.24, -13.19, 12.83, 23.59, -0.06, 0.04, -4.25, -13.09, 12.80, 23.86, -0.06, 0.04, -4.25
0.00, 0.00, 0.00, 0.00, 0.00, 0.00, 6.38, 4.03, 7.53, 35.46, 5.82, 0.04, 0.13, -4.16, -15.11, 11.29, 22.90, -0.04, 0.02, -4.17, -15.06, 11.35, 23.85, -0.04, 0.02, -4.17
0.00, 0.00, 0.00, 0.00, 0.00, 0.00, 6.50, 4.03, 4.49, 33.37, 6.91, 0.09, 0.07, -4.15, -18.12, 9.16, 23.90, -0.09, -0.04, -4.16, -17.92, 9.24, 23.91, -0.09, -0.04, -4.16
0.00, 0.00, 0.00, 0.00, 0.00, 0.00, 6.13, 4.03, 4.36, 30.74, 6.90, 0.05, 0.08, -4.18, -18.29, 6.58, 24.01, -0.05, -0.02, -4.19, -18.27, 6.66, 23.92, -0.05, -0.02, -4.19
0.00, 0.00, 0.00, 0.00, 0.00, 0.00, 6.38, 4.03, 5.80, 27.55, 6.46, 0.04, 0.08, -4.12, -16.83, 3.37, 23.52, -0.04, -0.02, -4.13, -16.96, 3.49, 23.92, -0.04, -0.02, -4.13
0.00, 0.00, 0.00, 0.00, 0.00, 0.00, 6.63, 4.03, 7.47, 24.77, 7.97, 0.06, 0.08, -4.17, -15.15, 0.58, 24.97, -0.06, -0.03, -4.18, -15.20, 0.64, 23.93, -0.06, -0.03, -4.18
0.00, 0.00, 0.00, 0.00, 0.00, 0.00, 6.50, 4.03, 9.72, 23.47, 8.18, 0.06, 0.07, -4.14, -12.90, -0.71, 25.22, -0.06, -0.04, -4.15, -12.97, -0.73, 23.93, -0.06, -0.04, -4.15
0.00, 0.00, 0.00, 0.00, 0.00, 0.00, 6.63, 4.03, 12.61, 23.09, 6.84, 0.06, 0.05, -4.12, -10.00, -1.10, 23.85, -0.06, -0.05, -4.13, -10.21, -1.12, 23.89, -0.06, -0.05, -4.13
0.00, 0.00, 0.00, 0.00, 0.00, 0.00, 6.50, 4.03, 15.20, 23.87, 8.70, 0.07, 0.06, -4.17, -7.42, -0.32, 25.73, -0.07, -0.05, -4.18, -7.49, -0.44, 23.86, -0.07, -0.05, -4.18
0.00, 0.00, 0.00, 0.00, 0.00, 0.00, 6.38, 4.03, 16.90, 26.79, 7.35, 0.07, 0.05, -4.11, -5.74, 2.61, 24.41, -0.07, -0.05, -4.12, -5.83, 2.43, 23.81, -0.07, -0.05, -4.12
0.00, 0.00, 0.00, 0.00, 0.00, 0.00, 6.50, 4.03, 18.31, 28.53, 6.93, 0.10, 0.06, -4.16, -4.31, 4.34, 23.96, -0.10, -0.05, -4.17, -4.42, 4.23, 23.76, -0.10, -0.05, -4.17
0.00, 0.00, 0.00, 0.00, 0.00, 0.00, 6.25, 4.03, 18.06, 31.72, 7.48, 0.06, 0.09, -4.18, -4.57, 7.55, 24.57, -0.06, -0.01, -4.19, -4.53, 7.37, 23.77, -0.06, -0.01, -4.19
0.00, 0.00, 0.00, 0.00, 0.00, 0.00, 6.50, 4.03, 16.88, 34.29, 6.91, 0.11, 0.05, -4.12, -5.74, 10.10, 23.95, -0.11, -0.05, -4.13, -5.67, 9.96, 23.76, -0.11, -0.05, -4.13
0.00, 0.00, 0.00, 0.00, 0.00, 0.00, 6.50, 4.03, 14.67, 35.95, 5.47, 0.11, 0.07, -4.17, -7.95, 11.77, 22.50, -0.12, -0.03, -4.18, -7.90, 11.72, 23.79, -0.12, -0.03, -4.18
0.00, 0.00, 0.00, 0.00, 0.00, 0.00, 6.38, 4.02, 12.20, 37.02, 6.27, 0.07, 0.12, -4.19, -10.43, 12.84, 23.33, -0.07, 0.02, -4.20, -10.32, 12.79, 23.83, -0.07, 0.02, -4.20
0.00, 0.00, 0.00, 0.00, 0.00, 0.00, 6.38, 4.03, 9.25, 36.48, 5.57, 0.02, 0.12, -4.19, -13.38, 12.30, 22.63, -0.02, 0.01, -4.20, -13.28, 12.34, 23.82, -0.02, 0.01, -4.20
0.00, 0.00, 0.00, 0.00, 0.00, 0.00, 6.50, 4.03, 6.90, 34.95, 5.88, 0.03, 0.08, -4.15, -15.72, 10.76, 22.91, -0.03, -0.02, -4.16, -15.64, 10.83, 23.81, -0.03, -0.02, -4.16
0.00, 0.00, 0.00, 0.00, 0.00, 0.00, 6.50, 4.03, 5.09, 33.37, 6.80, 0.06, 0.05, -4.16, -17.54, 9.18, 23.83, -0.06, -0.06, -4.17, -17.42, 9.23, 23.85, -0.06, -0.06, -4.17
0.00, 0.00, 0.00, 0.00, 0.00, 0.00, 6.75, 4.03, 4.87, 30.39, 5.90, 0.05, 0.07, -4.16, -17.74, 6.18, 22.89, -0.05, -0.04, -4.17, -17.79, 6.31, 23.86, -0.05, -0.04, -4.17
0.00, 0.00, 0.00, 0.00, 0.00, 0.00, 6.00, 4.03, 5.38, 27.39, 5.93, 0.04, 0.06, -4.13, -17.28, 3.24, 23.07, -0.04, -0.04, -4.14, -17.37, 3.36, 23.87, -0.04, -0.04, -4.14
0.00, 0.00, 0.00, 0.00, 0.00, 0.00, 6.25, 4.03, 7.16, 24.69, 7.60, 0.07, 0.05, -4.17, -15.46, 0.50, 24.64, -0.07, -0.05, -4.18, -15.54, 0.56, 23.88, -0.07, -0.05, -4.18
0.00, 0.00, 0.00, 0.00, 0.00, 0.00, 6.63, 4.03, 10.04, 22.99, 7.12, 0.06, 0.06, -4.13, -12.57, -1.21, 24.13, -0.06, -0.04, -4.14, -12.76, -1.17, 23.86, -0.06, -0.04, -4.14
0.00, 0.00, 0.00, 0.00, 0.00, 0.00, 6.13, 4.03, 13.49, 23.08, 7.82, 0.07, 0.05, -4.15, -9.16, -1.08, 24.93, -0.07, -0.06, -4.16, -9.33, -1.16, 23.82, -0.07, -0.06, -4.16
0.00, 0.00, 0.00, 0.00, 0.00, 0.00, 6.50, 4.03, 15.78, 24.28, 8.48, 0.06, 0.05, -4.18, -6.84, 0.09, 25.51, -0.06, -0.05, -4.19, -6.90, -0.04, 23.79, -0.06, -0.05, -4.19
0.00, 0.00, 0.00, 0.00, 0.00, 0.00, 6.50, 4.03, 17.38, 26.41, 7.67, 0.09, 0.05, -4.14, -5.25, 2.22, 24.71, -0.09, -0.06, -4.15, -5.31, 2.07, 23.75, -0.09, -0.06, -4.15
0.00, 0.00, 0.00, 0.00, 0.00, 0.00, 6.38, 4.03, 18.78, 28.62, 6.65, 0.09, 0.07, -4.17, -3.85, 4.44, 23.71, -0.09, -0.04, -4.18, -3.96, 4.32, 23.70, -0.09, -0.04, -4.18
0.00, 0.00, 0.00, 0.00, 0.00, 0.00, 6.25, 4.03, 17.86, 31.86, 7.18, 0.09, 0.08, -4.13, -4.78, 7.69, 24.26, -0.09, -0.02, -4.14, -4.71, 7.52, 23.71, -0.09, -0.02, -4.14
0.00, 0.00, 0.00, 0.00, 0.00, 0.00, 6.50, 4.03, 17.17, 34.00, 5.74, 0.10, 0.07, -4.17, -5.45, 9.81, 22.78, -0.10, -0.04, -4.18, -5.48, 9.72, 23.69, -0.10, -0.04, -4.18
0.00, 0.00, 0.00, 0.00, 0.00, 0.00, 6.38, 4.03, 14.76, 35.79, 6.12, 0.06, 0.10, -4.19, -7.87, 11.62, 23.18, -0.06, -0.01, -4.20, -7.77, 11.54, 23.72, -0.06, -0.01, -4.20
0.00, 0.00, 0.00, 0.00, 0.00, 0.00, 6.25, 4.03, 12.28, 36.20, 7.12, 0.08, 0.07, -4.17, -10.36, 12.03, 24.20, -0.08, -0.03, -4.18, -10.18, 11.99, 23.77, -0.08, -0.03, -4.18
0.00, 0.00, 0.00, 0.00, 0.00, 0.00, 6.38, 4.03, 9.89, 36.83, 5.09, 0.07, 0.08, -4.19, -12.74, 12.65, 22.15, -0.07, -0.03, -4.20, -12.70, 12.65, 23.77, -0.07, -0.03, -4.20
0.00, 0.00, 0.00, 0.00, 0.00, 0.00, 6.88, 4.03, 8.14, 35.82, 6.50, 0.04, 0.09, -4.14, -14.46, 11.61, 23.46, -0.05, -0.01, -4.15, -14.38, 11.64, 23.79, -0.05, -0.01, -4.15
0.00, 0.00, 0.00, 0.00, 0.00, 0.00, 6.38, 4.03, 5.61, 33.09, 6.71, 0.06, 0.06, -4.18, -17.02, 8.91, 23.77, -0.06, -0.05, -4.19, -16.85, 9.01, 23.84, -0.06, -0.05, -4.19
0.00, 0.00, 0.00, 0.00, 0.00, 0.00, 6.63, 4.03, 5.67, 30.12, 5.76, 0.06, 0.07, -4.25, -16.94, 5.93, 22.77, -0.06, -0.03, -4.26, -17.02, 6.06, 23.84, -0.06, -0.03, -4.26
0.00, 0.00, 0.00, 0.00, 0.00, 0.00, 6.63, 4.03, 5.88, 27.19, 7.59, 0.07, 0.05, -4.02, -16.74, 2.99, 24.59, -0.07, -0.05, -4.03, -16.71, 3.08, 23.88, -0.07, -0.05, -4.03
0.00, 0.00, 0.00, 0.00, 0.00, 0.00, 6.63, 4.03, 8.01, 24.58, 7.73, 0.08, 0.07, -4.31, -14.61, 0.39, 24.74, -0.08, -0.04, -4.32, -14.68, 0.44, 23.88, -0.08, -0.04, -4.32
0.00, 0.00, 0.00, 0.00, 0.00, 0.00, 6.38, 4.03, 10.98, 23.27, 7.69, 0.04, 0.07, -4.00, -11.66, -0.91, 24.75, -0.04, -0.03, -4.01, -11.82, -0.91, 23.87, -0.04, -0.03, -4.01
0.00, 0.00, 0.00, 0.00, 0.00, 0.00, 6.63, 4.02, 13.88, 22.98, 8.35, 0.09, 0.05, -4.22, -8.75, -1.20, 25.41, -0.09, -0.05, -4.23, -8.85, -1.27, 23.84, -0.09, -0.05, -4.23
0.00, 0.00, 0.00, 0.00, 0.00, 0.00, 6.75, 4.03, 15.90, 24.45, 8.37, 0.04, 0.09, -4.13, -6.71, 0.25, 25.36, -0.04, -0.01, -4.14, -6.75, 0.11, 23.83, -0.04, -0.01, -4.14
0.00, 0.00, 0.00, 0.00, 0.00, 0.00, 6.63, 4.03, 18.37, 26.45, 6.18, 0.07, 0.05, -4.10, -4.24, 2.26, 23.19, -0.07, -0.05, -4.11, -4.47, 2.15, 23.76, -0.07, -0.05, -4.11
0.00, 0.00, 0.00, 0.00, 0.00, 0.00, 6.38, 4.03, 18.97, 29.11, 7.02, 0.12, 0.04, -4.35, -3.66, 4.94, 24.08, -0.12, -0.06, -4.36, -3.70, 4.80, 23.71, -0.12, -0.06, -4.36
0.00, 0.00, 0.00, 0.00, 0.00, 0.00, 6.38, 4.03, 18.36, 31.73, 7.23, 0.04, 0.11, -3.92, -4.27, 7.55, 24.30, -0.04, 0.00, -3.93, -4.21, 7.39, 23.73, -0.04, 0.00, -3.93
0.00, 0.00, 0.00, 0.00, 0.00, 0.00, 6.38, 4.03, 17.30, 34.30, 6.69, 0.13, 0.05, -4.31, -5.33, 10.13, 23.75, -0.13, -0.06, -4.32, -5.28, 10.00, 23.72, -0.13, -0.06, -4.32
0.00, 0.00, 0.00, 0.00, 0.00, 0.00, 6.50, 4.03, 14.59, 36.16, 5.82, 0.06, 0.12, -4.10, -8.04, 11.97, 22.85, -0.06, 0.01, -4.11, -7.93, 11.90, 23.76, -0.06, 0.01, -4.11
0.00, 0.00, 0.00, 0.00, 0.00, 0.00, 6.13, 4.03, 12.23, 36.82, 6.68, 0.07, 0.09, -4.16, -10.41, 12.66, 23.79, -0.07, -0.02, -4.17, -10.27, 12.61, 23.79, -0.07, -0.02, -4.17
0.00, 0.00, 0.00, 0.00, 0.00, 0.00, 6.50, 4.03, 9.37, 36.47, 5.71, 0.07, 0.09, -4.24, -13.25, 12.28, 22.75, -0.07, -0.01, -4.25, -13.15, 12.31, 23.81, -0.07, -0.01, -4.25
0.00, 0.00, 0.00, 0.00, 0.00, 0.00, 6.50, 4.03, 7.54, 35.47, 7.29, 0.04, 0.09, -4.04, -15.08, 11.29, 24.33, -0.04, -0.02, -4.05, -14.93, 11.29, 23.84, -0.04, -0.02, -4.05
0.00, 0.00, 0.00, 0.00, 0.00, 0.00, 6.50, 4.03, 5.79, 32.78, 6.87, 0.06, 0.07, -4.29, -16.84, 8.60, 23.90, -0.06, -0.04, -4.30, -16.72, 8.69, 23.88, -0.06, -0.04, -4.30
0.00, 0.00, 0.00, 0.00, 0.00, 0.00, 6.25, 4.03, 4.87, 30.12, 5.95, 0.06, 0.07, -4.06, -17.77, 5.95, 23.04, -0.06, -0.03, -4.07, -17.76, 6.07, 23.90, -0.06, -0.03, -4.07
0.00, 0.00, 0.00, 0.00, 0.00, 0.00, 6.63, 4.03, 5.70, 26.78, 7.72, 0.07, 0.06, -4.19, -16.92, 2.58, 24.73, -0.07, -0.04, -4.20, -16.92, 2.68, 23.93, -0.07, -0.04, -4.20
0.00, 0.00, 0.00, 0.00, 0.00, 0.00, 6.50, 4.03, 7.41, 24.74, 7.57, 0.06, 0.07, -4.17, -15.21, 0.56, 24.61, -0.06, -0.03, -4.18, -15.28, 0.59, 23.93, -0.06, -0.03, -4.18
0.00, 0.00, 0.00, 0.00, 0.00, 0.00, 6.38, 4.03, 10.42, 23.27, 6.09, 0.08, 0.05, -4.06, -12.21, -0.91, 23.16, -0.08, -0.05, -4.07, -12.48, -0.86, 23.88, -0.08, -0.05, -4.07
0.00, 0.00, 0.00, 0.00, 0.00, 0.00, 6.38, 4.03, 12.83, 23.37, 7.32, 0.07, 0.07, -4.24, -9.80, -0.81, 24.38, -0.07, -0.03, -4.25, -9.94, -0.86, 23.85, -0.07, -0.03, -4.25
0.00, 0.00, 0.00, 0.00, 0.00, 0.00, 6.50, 4.03, 15.46, 24.45, 7.63, 0.05, 0.07, -4.10, -7.16, 0.27, 24.66, -0.05, -0.03, -4.11, -7.30, 0.16, 23.82, -0.05, -0.03, -4.11
0.00, 0.00, 0.00, 0.00, 0.00, 0.00, 6.88, 4.03, 17.80, 26.35, 7.47, 0.10, 0.05, -4.19, -4.80, 2.14, 24.43, -0.10, -0.06, -4.20, -4.94, 2.01, 23.75, -0.10, -0.06, -4.20
0.00, 0.00, 0.00, 0.00, 0.00, 0.00, 6.38, 4.03, 18.59, 28.69, 8.07, 0.09, 0.08, -4.16, -4.04, 4.51, 25.13, -0.09, -0.03, -4.17, -4.03, 4.35, 23.73, -0.09, -0.03, -4.17
0.00, 0.00, 0.00, 0.00, 0.00, 0.00, 6.50, 4.03, 17.60, 31.39, 5.54, 0.06, 0.08, -4.14, -5.04, 7.23, 22.63, -0.06, -0.02, -4.15, -5.06, 7.12, 23.72, -0.06, -0.02, -4.14
0.00, 0.00, 0.00, 0.00, 0.00, 0.00, 6.63, 4.03, 17.14, 33.98, 5.48, 0.06, 0.09, -4.21, -5.47, 9.79, 22.49, -0.06, -0.01, -4.22, -5.55, 9.69, 23.70, -0.06, -0.01, -4.22
0.00, 0.00, 0.00, 0.00, 0.00, 0.00, 6.63, 4.03, 14.45, 35.85, 6.30, 0.07, 0.06, -4.11, -8.16, 11.66, 23.31, -0.07, -0.04, -4.12, -8.03, 11.57, 23.72, -0.07, -0.04, -4.12
0.00, 0.00, 0.00, 0.00, 0.00, 0.00, 6.75, 4.03, 11.85, 36.69, 4.53, 0.10, 0.07, -4.20, -10.75, 12.48, 21.51, -0.10, -0.03, -4.21, -10.73, 12.49, 23.73, -0.10, -0.03, -4.21
0.00, 0.00, 0.00, 0.00, 0.00, 0.00, 6.38, 4.03, 9.35, 36.57, 6.05, 0.05, 0.12, -4.15, -13.28, 12.39, 23.11, -0.05, 0.01, -4.16, -13.17, 12.39, 23.75, -0.05, 0.01, -4.16
0.00, 0.00, 0.00, 0.00, 0.00, 0.00, 6.63, 4.03, 6.78, 35.11, 7.88, 0.09, 0.05, -4.16, -15.83, 10.91, 24.89, -0.09, -0.06, -4.17, -15.60, 10.92, 23.82, -0.09, -0.06, -4.17
0.00, 0.00, 0.00, 0.00, 0.00, 0.00, 6.50, 4.03, 5.39, 33.50, 7.00, 0.07, 0.10, -4.17, -17.23, 9.31, 24.04, -0.07, -0.01, -4.18, -17.12, 9.35, 23.86, -0.07, -0.01, -4.18
0.00, 0.00, 0.00, 0.00, 0.00, 0.00, 6.63, 4.03, 4.75, 30.58, 6.99, 0.05, 0.07, -4.14, -17.87, 6.38, 24.00, -0.05, -0.03, -4.14, -17.81, 6.48, 23.88, -0.05, -0.03, -4.14
0.00, 0.00, 0.00, 0.00, 0.00, 0.00, 6.50, 4.03, 5.25, 27.49, 7.86, 0.06, 0.08, -4.14, -17.38, 3.31, 24.90, -0.06, -0.03, -4.15, -17.34, 3.38, 23.91, -0.06, -0.03, -4.15
0.00, 0.00, 0.00, 0.00, 0.00, 0.00, 6.63, 4.03, 7.80, 24.52, 6.24, 0.06, 0.08, -4.13, -14.81, 0.33, 23.25, -0.06, -0.02, -4.14, -15.03, 0.44, 23.88, -0.06, -0.02, -4.14
0.00, 0.00, 0.00, 0.00, 0.00, 0.00, 6.25, 4.03, 10.80, 23.50, 7.69, 0.07, 0.07, -4.15, -11.84, -0.67, 24.77, -0.07, -0.04, -4.16, -12.00, -0.68, 23.85, -0.07, -0.04, -4.16
0.00, 0.00, 0.00, 0.00, 0.00, 0.00, 6.38, 4.03, 12.99, 23.11, 8.30, 0.08, 0.06, -4.13, -9.64, -1.07, 25.36, -0.08, -0.04, -4.14, -9.70, -1.13, 23.84, -0.08, -0.04, -4.14
0.00, 0.00, 0.00, 0.00, 0.00, 0.00, 6.50, 4.03, 16.22, 24.10, 6.47, 0.07, 0.07, -4.12, -6.40, -0.09, 23.51, -0.07, -0.03, -4.13, -6.65, -0.16, 23.77, -0.07, -0.03, -4.13
0.00, 0.00, 0.00, 0.00, 0.00, 0.00, 6.50, 4.03, 17.52, 25.90, 7.09, 0.09, 0.08, -4.14, -5.10, 1.71, 24.12, -0.09, -0.03, -4.15, -5.19, 1.60, 23.73, -0.09, -0.03, -4.15
0.00, 0.00, 0.00, 0.00, 0.00, 0.00, 6.63, 4.03, 17.99, 28.73, 8.08, 0.09, 0.08, -4.17, -4.62, 4.54, 25.09, -0.09, -0.02, -4.18, -4.59, 4.35, 23.73, -0.09, -0.02, -4.18
0.00, 0.00, 0.00, 0.00, 0.00, 0.00, 6.63, 4.03, 17.49, 31.19, 5.95, 0.08, 0.09, -4.16, -5.12, 6.99, 22.96, -0.08, -0.01, -4.17, -5.15, 6.89, 23.72, -0.08, -0.01, -4.17
0.00, 0.00, 0.00, 0.00, 0.00, 0.00, 6.38, 4.03, 16.60, 33.65, 6.46, 0.11, 0.09, -4.13, -6.03, 9.47, 23.52, -0.11, -0.02, -4.14, -6.00, 9.34, 23.73, -0.11, -0.02, -4.14
0.00, 0.00, 0.00, 0.00, 0.00, 0.00, 6.63, 4.03, 14.26, 35.71, 6.78, 0.15, 0.06, -4.14, -8.35, 11.51, 23.79, -0.15, -0.04, -4.15, -8.21, 11.40, 23.78, -0.15, -0.04, -4.15
0.00, 0.00, 0.00, 0.00, 0.00, 0.00, 6.38, 4.03, 11.39, 36.73, 6.39, 0.03, 0.20, -4.24, -11.24, 12.54, 23.42, -0.03, 0.10, -4.25, -11.09, 12.49, 23.84, -0.03, 0.10, -4.25
0.00, 0.00, 0.00, 0.00, 0.00, 0.00, 6.25, 4.03, 9.15, 35.95, 6.30, 0.03, 0.12, -4.11, -13.49, 11.79, 23.39, -0.03, 0.02, -4.12, -13.38, 11.81, 23.83, -0.03, 0.02, -4.12
0.00, 0.00, 0.00, 0.00, 0.00, 0.00, 6.38, 4.03, 6.45, 35.41, 7.95, 0.12, 0.05, -4.13, -16.19, 11.24, 25.01, -0.13, -0.05, -4.14, -15.94, 11.21, 23.92, -0.13, -0.05, -4.14
0.00, 0.00, 0.00, 0.00, 0.00, 0.00, 6.50, 4.03, 4.81, 32.14, 6.43, 0.10, 0.11, -4.14, -17.81, 7.95, 23.47, -0.10, 0.01, -4.15, -17.72, 8.08, 23.95, -0.10, 0.01, -4.15
0.00, 0.00, 0.00, 0.00, 0.00, 0.00, 6.38, 4.03, 4.50, 30.59, 7.76, 0.24, 0.02, -4.02, -18.13, 6.41, 24.82, -0.24, -0.08, -4.02, -18.07, 6.43, 23.99, -0.24, -0.08, -4.03
0.00, 0.00, 0.00, 0.00, 0.00, 0.00, 6.63, 4.03, 4.84, 26.89, 9.03, 0.07, 0.20, -4.06, -17.78, 2.70, 26.04, -0.07, 0.09, -4.07, -17.66, 2.80, 23.97, -0.07, 0.09, -4.07
0.00, 0.00, 0.00, 0.00, 0.00, 0.00, 6.63, 4.03, 6.66, 24.42, 7.95, 0.11, 0.16, -4.29, -15.95, 0.23, 24.96, -0.11, 0.06, -4.30, -15.99, 0.28, 23.90, -0.11, 0.06, -4.30
0.00, 0.00, 0.00, 0.00, 0.00, 0.00, 6.38, 4.03, 9.68, 23.82, 8.07, 0.31, -0.01, -3.24, -12.96, -0.35, 25.13, -0.31, -0.11, -3.25, -13.24, -0.43, 23.67, -0.31, -0.11, -3.25
0.00, 0.00, 0.00, 0.00, 0.00, 0.00, 6.63, 4.03, 10.90, 23.33, 7.66, 0.18, 0.16, -1.66, -11.71, -0.87, 24.67, -0.18, 0.05, -1.67, -12.16, -0.91, 23.59, -0.18, 0.05, -1.67
0.00, 0.00, 0.00, 0.00, 0.00, 0.00, 6.38, 4.03, 12.48, 23.06, 7.51, -0.17, 0.18, -0.48, -10.15, -1.11, 24.57, 0.17, 0.08, -0.49, -11.76, -1.16, 23.71, 0.17, 0.08, -0.49
0.00, 0.00, 0.00, 0.00, 0.00, 0.00, 6.50, 4.03, 12.44, 22.76, 7.78, -0.09, 0.32, 0.44, -10.19, -1.43, 24.81, 0.09, 0.21, 0.43, -11.59, -1.30, 23.72, 0.09, 0.21, 0.43
0.00, 0.00, 0.00, 0.00, 0.00, 0.00, 6.50, 4.03, 12.41, 22.36, 7.48, -0.13, 0.09, 1.00, -10.21, -1.82, 24.52, 0.13, -0.02, 0.99, -11.28, -1.49, 23.68, 0.14, -0.02, 0.99
0.00, 0.00, 0.00, 0.00, 0.00, 0.00, 6.38, 4.03, 11.15, 22.10, 8.33, -0.04, 0.04, 1.41, -11.48, -2.08, 25.39, 0.04, -0.06, 1.40, -11.30, -1.76, 23.70, 0.04, -0.06, 1.40
0.00, 0.00, 0.00, 0.00, 0.00, 0.00, 6.63, 4.03, 10.25, 22.99, 7.48, -0.05, 0.10, 1.73, -12.37, -1.21, 24.49, 0.05, -0.01, 1.72, -11.88, -1.33, 23.73, 0.05, -0.01, 1.72
0.00, 0.00, 0.00, 0.00, 0.00, 0.00, 6.38, 4.03, 9.02, 23.34, 7.78, -0.05, 0.10, 1.99, -13.61, -0.84, 24.84, 0.05, -0.00, 1.98, -13.01, -0.90, 23.77, 0.05, -0.00, 1.98
0.00, 0.00, 0.00, 0.00, 0.00, 0.00, 6.50, 4.03, 7.25, 23.91, 7.18, -0.03, 0.06, 2.17, -15.37, -0.28, 24.21, 0.03, -0.04, 2.16, -14.74, -0.32, 23.79, 0.03, -0.04, 2.16
0.00, 0.00, 0.00, 0.00, 0.00, 0.00, 6.38, 4.03, 6.08, 25.30, 6.77, -0.07, 0.11, 2.34, -16.55, 1.12, 23.83, 0.07, 0.00, 2.33, -16.15, 0.97, 23.83, 0.07, 0.00, 2.33
0.00, 0.00, 0.00, 0.00, 0.00, 0.00, 6.38, 4.03, 5.32, 26.67, 6.61, -0.09, 0.09, 2.54, -17.31, 2.50, 23.67, 0.09, -0.01, 2.53, -17.10, 2.37, 23.85, 0.09, -0.01, 2.53
0.00, 0.00, 0.00, 0.00, 0.00, 0.00, 6.63, 4.03, 4.52, 28.73, 6.59, -0.04, 0.05, 2.66, -18.11, 4.55, 23.63, 0.04, -0.06, 2.65, -17.94, 4.37, 23.88, 0.04, -0.06, 2.65
0.00, 0.00, 0.00, 0.00, 0.00, 0.00, 6.50, 4.03, 4.08, 30.63, 6.77, -0.10, 0.14, 2.65, -18.55, 6.45, 23.80, 0.10, 0.03, 2.64, -18.42, 6.28, 23.88, 0.10, 0.03, 2.64
0.00, 0.00, 0.00, 0.00, 0.00, 0.00, 6.13, 4.03, 4.53, 32.80, 6.78, -0.04, 0.06, 2.50, -18.12, 8.64, 23.89, 0.04, -0.04, 2.49, -18.15, 8.41, 23.87, 0.04, -0.04, 2.49
0.00, 0.00, 0.00, 0.00, 0.00, 0.00, 6.63, 4.03, 5.57, 33.97, 6.71, -0.06, 0.09, 2.41, -17.05, 9.77, 23.72, 0.06, -0.02, 2.40, -17.23, 9.65, 23.86, 0.06, -0.02, 2.40
0.00, 0.00, 0.00, 0.00, 0.00, 0.00, 6.50, 4.03, 6.58, 35.31, 6.59, -0.04, 0.07, 2.39, -16.05, 11.12, 23.63, 0.04, -0.04, 2.38, -16.25, 10.98, 23.85, 0.04, -0.04, 2.38
0.00, 0.00, 0.00, 0.00, 0.00, 0.00, 6.25, 4.03, 7.92, 36.07, 5.85, -0.05, 0.04, 2.41, -14.72, 11.90, 22.93, 0.04, -0.06, 2.40, -15.02, 11.84, 23.82, 0.05, -0.06, 2.40
0.00, 0.00, 0.00, 0.00, 0.00, 0.00, 6.25, 4.03, 9.25, 37.14, 6.61, -0.07, 0.07, 2.35, -13.39, 12.97, 23.69, 0.07, -0.03, 2.34, -13.67, 12.85, 23.79, 0.07, -0.03, 2.34
0.00, 0.00, 0.00, 0.00, 0.00, 0.00, 6.50, 4.03, 10.71, 37.04, 6.53, -0.05, 0.06, 2.23, -11.91, 12.85, 23.57, 0.05, -0.05, 2.22, -12.24, 12.89, 23.76, 0.05, -0.05, 2.22
0.00, 0.00, 0.00, 0.00, 0.00, 0.00, 6.75, 4.03, 12.41, 36.71, 6.27, -0.07, 0.07, 2.11, -10.20, 12.51, 23.25, 0.07, -0.04, 2.10, -10.65, 12.61, 23.71, 0.07, -0.04, 2.10
0.00, 0.00, 0.00, 0.00, 0.00, 0.00, 6.63, 4.03, 13.74, 36.42, 6.34, -0.08, 0.08, 2.06, -8.88, 12.23, 23.35, 0.08, -0.03, 2.05, -9.28, 12.32, 23.66, 0.08, -0.03, 2.05
0.00, 0.00, 0.00, 0.00, 0.00, 0.00, 6.50, 4.03, 14.67, 35.62, 5.76, -0.06, 0.06, 2.03, -7.95, 11.43, 22.79, 0.06, -0.04, 2.02, -8.27, 11.63, 23.61, 0.06, -0.04, 2.02
0.00, 0.00, 0.00, 0.00, 0.00, 0.00, 6.50, 4.03, 15.90, 34.74, 6.26, -0.06, 0.09, 1.97, -6.72, 10.55, 23.29, 0.06, -0.01, 1.96, -7.09, 10.79, 23.58, 0.06, -0.01, 1.96
0.00, 0.00, 0.00, 0.00, 0.00, 0.00, 6.25, 4.03, 16.76, 33.62, 6.87, -0.07, 0.08, 1.94, -5.88, 9.45, 23.96, 0.07, -0.02, 1.94, -6.13, 9.72, 23.56, 0.07, -0.02, 1.94
0.00, 0.00, 0.00, 0.00, 0.00, 0.00, 6.50, 4.03, 17.60, 32.61, 6.39, -0.07, 0.08, 1.97, -5.03, 8.42, 23.42, 0.07, -0.02, 1.96, -5.28, 8.69, 23.53, 0.07, -0.02, 1.96
0.00, 0.00, 0.00, 0.00, 0.00, 0.00, 6.13, 4.03, 18.20, 31.26, 7.19, -0.07, 0.09, 2.06, -4.45, 7.10, 24.30, 0.07, -0.02, 2.05, -4.58, 7.39, 23.52, 0.07, -0.02, 2.05
0.00, 0.00, 0.00, 0.00, 0.00, 0.00, 6.38, 4.02, 17.89, 29.55, 6.90, -0.06, 0.07, 2.18, -4.74, 5.37, 23.96, 0.06, -0.03, 2.17, -4.62, 5.72, 23.52, 0.06, -0.03, 2.17
0.00, 0.00, 0.00, 0.00, 0.00, 0.00, 6.63, 4.03, 17.90, 28.11, 6.34, -0.08, 0.08, 2.34, -4.71, 3.91, 23.35, 0.08, -0.02, 2.33, -4.65, 4.19, 23.51, 0.08, -0.02, 2.33
0.00, 0.00, 0.00, 0.00, 0.00, 0.00, 6.13, 4.03, 17.51, 26.64, 6.84, -0.08, 0.08, 2.52, -5.14, 2.48, 23.95, 0.08, -0.03, 2.51, -4.99, 2.71, 23.51, 0.08, -0.03, 2.51
0.00, 0.00, 0.00, 0.00, 0.00, 0.00, 6.25, 4.03, 16.85, 25.23, 6.87, -0.09, 0.08, 2.73, -5.79, 1.06, 23.96, 0.09, -0.02, 2.72, -5.61, 1.24, 23.53, 0.09, -0.02, 2.72
0.00, 0.00, 0.00, 0.00, 0.00, 0.00, 6.25, 4.03, 16.00, 24.03, 7.45, -0.09, 0.09, 2.92, -6.64, -0.14, 24.54, 0.09, -0.02, 2.91, -6.41, -0.01, 23.56, 0.09, -0.02, 2.91
0.00, 0.00, 0.00, 0.00, 0.00, 0.00, 6.13, 4.03, 13.77, 22.65, 8.20, -0.09, 0.08, 3.11, -8.88, -1.51, 25.31, 0.09, -0.02, 3.10, -8.45, -1.39, 23.63, 0.09, -0.02, 3.10
0.00, 0.00, 0.00, 0.00, 0.00, 0.00, 6.75, 4.03, 11.25, 22.61, 7.99, -0.10, 0.09, 3.27, -11.35, -1.59, 24.98, 0.10, -0.01, 3.26, -10.94, -1.57, 23.71, 0.09, -0.01, 3.26
0.00, 0.00, 0.00, 0.00, 0.00, 0.00, 6.25, 4.03, 9.18, 23.09, 7.60, -0.09, 0.08, 3.40, -13.46, -1.08, 24.69, 0.09, -0.02, 3.39, -13.14, -1.09, 23.78, 0.09, -0.02, 3.39
0.00, 0.00, 0.00, 0.00, 0.00, 0.00, 6.88, 4.03, 6.40, 24.80, 7.57, -0.09, 0.09, 3.51, -16.20, 0.59, 24.53, 0.09, -0.02, 3.50, -15.85, 0.51, 23.86, 0.09, -0.02, 3.50
0.00, 0.00, 0.00, 0.00, 0.00, 0.00, 6.38, 4.03, 5.19, 26.59, 7.03, -0.09, 0.08, 3.56, -17.44, 2.41, 24.09, 0.09, -0.03, 3.55, -17.27, 2.33, 23.91, 0.09, -0.03, 3.55
0.00, 0.00, 0.00, 0.00, 0.00, 0.00, 6.38, 4.03, 4.08, 29.17, 7.09, -0.08, 0.08, 3.58, -18.55, 4.99, 24.15, 0.08, -0.02, 3.57, -18.41, 4.87, 23.94, 0.08, -0.02, 3.57
0.00, 0.00, 0.00, 0.00, 0.00, 0.00, 6.38, 4.03, 4.43, 32.39, 6.36, -0.09, 0.08, 3.55, -18.20, 8.21, 23.42, 0.09, -0.03, 3.54, -18.24, 8.06, 23.94, 0.09, -0.03, 3.54
0.00, 0.00, 0.00, 0.00, 0.00, 0.00, 6.38, 4.03, 5.42, 34.20, 6.43, -0.09, 0.07, 3.47, -17.21, 10.02, 23.49, 0.09, -0.03, 3.46, -17.31, 9.94, 23.91, 0.09, -0.03, 3.46
0.00, 0.00, 0.00, 0.00, 0.00, 0.00, 6.63, 4.03, 7.35, 35.93, 6.42, -0.07, 0.07, 3.34, -15.26, 11.73, 23.43, 0.07, -0.04, 3.33, -15.47, 11.65, 23.87, 0.07, -0.04, 3.33
0.00, 0.00, 0.00, 0.00, 0.00, 0.00, 6.25, 4.03, 9.57, 36.77, 6.11, -0.08, 0.06, 3.16, -13.07, 12.60, 23.20, 0.08, -0.04, 3.15, -13.34, 12.57, 23.82, 0.08, -0.04, 3.15
0.00, 0.00, 0.00, 0.00, 0.00, 0.00, 6.38, 4.03, 11.94, 37.15, 5.73, -0.07, 0.06, 2.95, -10.69, 12.98, 22.79, 0.07, -0.05, 2.94, -11.05, 12.98, 23.75, 0.07, -0.05, 2.94
0.00, 0.00, 0.00, 0.00, 0.00, 0.00, 6.63, 4.03, 13.62, 36.67, 5.86, -0.07, 0.05, 2.75, -8.99, 12.47, 22.87, 0.07, -0.05, 2.74, -9.29, 12.56, 23.68, 0.07, -0.05, 2.74
0.00, 0.00, 0.00, 0.00, 0.00, 0.00, 6.50, 4.02, 14.70, 35.66, 6.20, -0.07, 0.06, 2.57, -7.92, 11.48, 23.23, 0.06, -0.04, 2.56, -8.11, 11.63, 23.64, 0.07, -0.04, 2.56
0.00, 0.00, 0.00, 0.00, 0.00, 0.00, 6.25, 4.03, 16.65, 34.57, 6.11, -0.06, 0.05, 2.40, -5.99, 10.40, 23.20, 0.06, -0.05, 2.39, -6.36, 10.57, 23.58, 0.06, -0.05, 2.39
0.00, 0.00, 0.00, 0.00, 0.00, 0.00, 6.50, 4.03, 16.94, 33.59, 5.69, -0.07, 0.06, 2.28, -5.68, 9.40, 22.72, 0.07, -0.05, 2.27, -5.80, 9.60, 23.54, 0.07, -0.05, 2.27
0.00, 0.00, 0.00, 0.00, 0.00, 0.00, 6.50, 4.03, 17.64, 32.10, 6.21, -0.06, 0.07, 2.22, -4.98, 7.91, 23.25, 0.06, -0.03, 2.21, -5.12, 8.19, 23.51, 0.06, -0.03, 2.21
0.00, 0.00, 0.00, 0.00, 0.00, 0.00, 6.38, 4.03, 18.11, 30.74, 6.59, -0.06, 0.07, 2.22, -4.54, 6.58, 23.70, 0.06, -0.03, 2.21, -4.60, 6.83, 23.49, 0.06, -0.03, 2.21
0.00, 0.00, 0.00, 0.00, 0.00, 0.00, 6.50, 4.03, 18.01, 29.06, 6.61, -0.07, 0.07, 2.28, -4.62, 4.87, 23.64, 0.07, -0.04, 2.27, -4.55, 5.17, 23.48, 0.07, -0.04, 2.27
0.00, 0.00, 0.00, 0.00, 0.00, 0.00, 6.38, 4.03, 17.73, 27.29, 6.80, -0.11, 0.08, 2.41, -4.90, 3.11, 23.86, 0.10, -0.02, 2.40, -4.77, 3.40, 23.48, 0.10, -0.02, 2.40
0.00, 0.00, 0.00, 0.00, 0.00, 0.00, 6.38, 4.03, 17.61, 26.07, 7.35, -0.07, 0.08, 2.57, -5.02, 1.90, 24.41, 0.07, -0.03, 2.56, -4