-124.00, -138.00, 255.00, -0.05, 0.04, -0.03, 15.38, 4.07, 29.01, 53.05, -50.82, 0.00, 0.11, 0.01, -2.82, 29.84, -27.32, -0.00, 0.00, -0.00, -1.82, 30.40, -29.36, -0.00, 0.00, -0.00
-96.00, 81.00, -65.00, -0.17, -0.18, -0.04, 15.25, 4.11, 7.92, 61.85, -42.88, -0.00, 0.10, 0.01, -1.78, 31.82, -30.30, 0.00, -0.00, -0.00, -1.82, 30.89, -29.32, 0.00, -0.00, -0.00
-234.00, -243.00, -80.00, -0.21, 0.04, -0.20, 15.25, 4.10, 13.64, 47.94, -64.78, 0.00, 0.10, 0.01, -0.26, 31.66, -28.25, -0.00, -0.00, 0.00, -1.66, 31.17, -29.20, -0.00, -0.00, 0.00
-255.00, 80.00, -255.00, 0.06, 0.03, 0.24, 15.63, 4.05, -7.04, 62.96, -50.80, 0.00, 0.11, 0.01, 1.37, 29.96, -29.22, -0.00, 0.01, 0.00, -1.36, 30.73, -29.25, 0.00, 0.01, 0.00
111.00, 65.00, 255.00, -0.04, -0.20, -0.10, 15.38, 4.07, 34.92, 60.44, -41.52, -0.00, 0.11, 0.01, -2.54, 29.56, -30.72, 0.00, 0.00, -0.00, -1.49, 30.29, -29.40, 0.00, 0.00, -0.00
-81.00, -255.00, -164.00, -0.14, -0.05, 0.01, 15.13, 4.08, 19.69, 44.29, -67.00, 0.00, 0.10, 0.01, -0.17, 31.70, -29.17, -0.00, -0.00, -0.00, -1.36, 30.79, -29.28, 0.00, -0.00, -0.00
-208.00, -96.00, 32.00, 0.24, 0.07, -0.23, 15.50, 4.10, 13.23, 55.16, -53.23, -0.00, 0.10, 0.01, -1.65, 31.63, -30.47, 0.00, 0.00, -0.00, -1.40, 31.07, -29.29, 0.00, 0.00, -0.00
255.00, 124.00, -255.00, -0.15, -0.23, -0.02, 15.63, 4.07, 19.53, 57.85, -48.45, -0.00, 0.11, 0.01, -0.63, 29.41, -29.30, 0.00, 0.00, -0.00, -1.32, 30.48, -29.39, 0.00, 0.00, -0.00
-218.00, -255.00, -49.00, -0.07, -0.22, 0.00, 15.63, 4.05, 15.40, 47.03, -65.24, 0.00, 0.11, 0.01, -1.46, 31.41, -29.02, -0.00, 0.01, -0.00, -1.33, 30.81, -29.31, -0.00, 0.01, -0.00
-125.00, -255.00, 0.00, 0.21, -0.03, -0.21, 15.38, 4.08, 23.31, 45.26, -63.45, 0.00, 0.10, 0.01, -1.51, 31.29, -29.30, -0.00, 0.00, 0.00, -1.35, 30.98, -29.28, -0.00, 0.00, 0.00
255.00, -65.00, -255.00, 0.01, 0.04, -0.08, 15.50, 4.07, 26.03, 50.39, -59.49, 0.00, 0.10, 0.01, -1.96, 31.94, -30.00, -0.00, -0.00, -0.00, -1.42, 31.31, -29.26, -0.01, -0.00, -0.00
32.00, 81.00, -138.00, 0.18, 0.23, 0.14, 15.50, 4.10, 12.53, 58.83, -44.75, 0.00, 0.11, 0.01, -1.56, 30.64, -30.73, -0.00, 0.00, -0.00, -1.44, 31.05, -29.37, -0.00, 0.00, 0.00
243.00, 255.00, 207.00, 0.08, -0.07, -0.20, 15.63, 4.07, 32.32, 68.61, -36.50, 0.00, 0.11, 0.01, -3.55, 29.53, -32.52, -0.00, 0.00, -0.00, -1.68, 30.45, -29.62, -0.00, 0.00, -0.00
138.00, -125.00, -255.00, 0.19, 0.21, 0.25, 15.63, 4.05, 22.84, 48.64, -60.39, 0.00, 0.10, 0.01, -0.76, 31.96, -29.11, -0.00, -0.00, -0.00, -1.59, 30.99, -29.49, -0.00, -0.00, -0.00
252.00, 255.00, 255.00, -0.17, 0.12, -0.22, 15.75, 4.03, 35.74, 69.04, -36.98, -0.00, 0.11, 0.01, -2.52, 29.32, -32.53, 0.00, 0.00, -0.00, -1.71, 30.34, -29.74, 0.00, 0.00, -0.00
-237.00, 188.00, -255.00, -0.07, 0.21, -0.11, 15.25, 4.02, -11.68, 67.25, -45.79, 0.00, 0.10, 0.01, -0.61, 29.04, -29.65, -0.00, 0.00, 0.00, -1.60, 29.87, -29.81, 0.00, 0.00, 0.00
-126.00, 255.00, -177.00, 0.16, 0.24, 0.22, 15.75, 4.04, -6.20, 69.94, -39.35, 0.00, 0.11, 0.01, -2.69, 30.30, -31.09, -0.00, 0.00, -0.00, -1.72, 30.01, -29.85, -0.00, 0.00, -0.00
228.00, 255.00, 255.00, -0.23, -0.17, -0.07, 15.50, 4.03, 34.73, 69.64, -36.38, 0.00, 0.10, 0.01, -2.16, 29.68, -32.40, -0.00, -0.00, -0.00, -1.78, 29.85, -29.99, -0.00, -0.00, -0.00
-255.00, -237.00, -126.00, 0.23, 0.04, -0.24, 15.50, 4.03, 9.75, 48.03, -65.83, -0.00, 0.10, 0.01, -0.74, 30.86, -28.69, 0.00, 0.00, -0.00, -1.67, 30.22, -29.85, 0.00, 0.00, -0.00
255.00, 81.00, -255.00, -0.15, 0.06, -0.14, 15.63, 4.04, 20.64, 58.07, -51.70, -0.00, 0.11, 0.01, -1.26, 31.97, -30.50, 0.00, 0.00, -0.00, -1.63, 30.83, -29.77, 0.00, 0.00, -0.00
-219.00, 111.00, -209.00, -0.08, -0.13, 0.19, 15.63, 4.06, -4.98, 64.07, -47.94, 0.00, 0.11, 0.01, 0.44, 30.39, -30.64, -0.00, 0.00, -0.00, -1.43, 30.65, -29.82, -0.00, 0.00, -0.00
-138.00, -198.00, 252.00, -0.15, -0.21, 0.24, 15.63, 4.06, 31.18, 50.80, -57.50, 0.00, 0.10, 0.01, -2.06, 30.29, -29.32, -0.00, -0.01, 0.00, -1.49, 30.53, -29.82, -0.00, -0.01, -0.00
-218.00, -255.00, 255.00, 0.06, 0.10, 0.19, 15.50, 4.03, 28.28, 50.42, -63.18, 0.00, 0.10, 0.01, -2.22, 30.75, -29.29, -0.00, 0.00, -0.00, -1.56, 30.62, -29.79, -0.00, 0.00, -0.00
111.00, 165.00, 253.00, 0.15, 0.14, 0.07, 15.75, 4.04, 30.15, 65.46, -37.97, 0.00, 0.10, 0.01, -3.12, 29.32, -31.89, -0.00, -0.00, -0.00, -1.73, 30.12, -29.97, -0.00, -0.00, -0.00
219.00, 209.00, 125.00, 0.18, -0.23, 0.00, 15.63, 4.07, 28.52, 65.90, -38.31, 0.01, 0.10, 0.01, -3.84, 30.49, -32.78, -0.01, -0.01, 0.00, -1.97, 30.21, -30.09, -0.01, -0.01, 0.00
244.00, -255.00, 0.00, 0.20, 0.19, -0.09, 15.88, 4.06, 43.29, 41.89, -64.83, 0.00, 0.11, 0.01, -3.36, 31.89, -29.24, -0.00, 0.00, -0.00, -2.10, 30.82, -29.94, -0.00, 0.00, -0.00
255.00, 252.00, -151.00, 0.25, -0.09, 0.13, 15.25, 4.04, 19.76, 66.15, -41.61, 0.00, 0.10, 0.01, -0.49, 30.88, -32.13, -0.00, -0.00, -0.00, -1.96, 30.80, -30.03, 0.00, -0.00, -0.00
255.00, -152.00, 199.00, -0.16, 0.17, 0.24, 15.38, 4.04, 47.14, 49.43, -57.88, 0.00, 0.10, 0.01, -5.02, 32.13, -31.62, -0.00, -0.01, -0.00, -2.28, 31.25, -30.04, -0.00, -0.01, -0.00
-228.00, 237.00, 255.00, 0.19, 0.05, -0.09, 15.63, 4.03, 10.61, 73.34, -37.50, 0.00, 0.10, 0.01, 0.05, 28.42, -32.51, -0.00, -0.00, -0.00, -2.08, 30.18, -30.30, -0.00, -0.00, -0.00
253.00, 97.00, -152.00, 0.15, -0.15, 0.14, 15.25, 4.05, 22.89, 57.70, -47.90, 0.00, 0.10, 0.01, -2.98, 30.87, -31.48, -0.00, -0.00, -0.00, -2.18, 30.41, -30.32, -0.00, -0.00, -0.00
219.00, -219.00, 209.00, -0.20, 0.19, -0.23, 15.63, 4.05, 49.36, 46.92, -60.10, -0.00, 0.10, 0.01, -3.90, 32.24, -29.44, 0.00, -0.00, -0.00, -2.34, 31.07, -30.16, 0.00, -0.00, -0.00
-255.00, 252.00, -255.00, -0.03, -0.08, -0.10, 15.75, 4.02, -13.74, 70.52, -44.99, -0.00, 0.10, 0.01, 0.76, 28.29, -31.30, 0.00, -0.00, -0.00, -2.05, 30.04, -30.36, 0.00, -0.00, 0.00
-65.00, -139.00, -165.00, 0.03, -0.12, -0.19, 15.63, 4.06, 13.53, 47.97, -56.94, -0.00, 0.10, 0.01, -2.74, 30.02, -28.64, 0.00, -0.00, -0.00, -2.10, 30.06, -30.28, 0.00, -0.00, -0.00
65.00, -187.00, -252.00, -0.13, -0.12, 0.08, 15.75, 4.09, 19.22, 44.18, -63.20, 0.00, 0.10, 0.01, -2.70, 29.96, -27.86, -0.00, -0.00, -0.00, -2.14, 30.06, -30.18, -0.00, -0.00, -0.00
-197.00, -186.00, 138.00, 0.18, -0.01, -0.23, 15.63, 4.08, 21.94, 51.27, -57.78, 0.00, 0.11, 0.01, -2.18, 31.10, -29.64, -0.00, 0.00, -0.00, -2.14, 30.44, -30.08, -0.00, 0.00, -0.00
244.00, -32.00, -255.00, 0.00, -0.20, 0.13, 15.88, 4.07, 23.56, 51.34, -56.66, 0.00, 0.11, 0.01, -2.38, 31.05, -29.54, -0.00, 0.00, -0.00, -2.16, 30.66, -30.02, -0.00, 0.00, -0.00
0.00, -255.00, 198.00, -0.22, -0.20, -0.11, 15.50, 4.07, 38.04, 46.24, -61.75, 0.00, 0.10, 0.01, -3.30, 31.38, -29.90, -0.00, -0.00, -0.00, -2.27, 30.92, -29.97, -0.00, -0.00, -0.00
-255.00, -255.00, -176.00, 0.17, -0.01, 0.01, 15.63, 4.04, 8.96, 47.24, -69.58, -0.00, 0.10, 0.01, 0.19, 30.98, -29.18, 0.00, -0.00, -0.00, -2.02, 30.94, -29.91, 0.00, -0.00, -0.00
237.00, -32.00, 32.00, -0.18, -0.15, 0.02, 15.13, 4.08, 36.44, 52.48, -49.42, 0.00, 0.11, 0.01, -2.49, 31.37, -30.41, -0.00, 0.00, -0.00, -2.07, 31.09, -29.91, -0.00, 0.00, -0.00
-244.00, -218.00, 48.00, 0.22, -0.15, -0.11, 15.38, 4.09, 17.48, 49.62, -62.66, 0.00, 0.10, 0.01, -0.85, 31.00, -30.29, -0.00, -0.00, -0.00, -1.95, 31.05, -29.92, -0.00, -0.00, -0.00
255.00, -217.00, -175.00, -0.16, 0.03, 0.10, 15.50, 4.05, 34.24, 43.03, -66.78, 0.04, 0.10, 0.01, -3.49, 32.05, -29.73, -0.04, -0.00, -0.00, -2.11, 31.41, -29.86, -0.04, -0.00, -0.00
-228.00, 65.00, 164.00, 0.23, -0.18, 0.24, 15.38, 4.07, 12.60, 63.26, -43.31, 0.00, 0.10, 0.01, -0.42, 29.22, -30.54, -0.00, -0.00, -0.00, -1.95, 30.62, -30.00, -0.00, -0.00, -0.00
255.00, -244.00, 255.00, -0.19, -0.20, 0.20, 15.75, 4.04, 54.30, 45.94, -62.76, -0.00, 0.10, 0.01, -3.81, 31.81, -29.22, 0.00, -0.00, 0.00, -2.13, 31.05, -29.89, 0.00, -0.00, -0.00
-253.00, -255.00, 255.00, -0.15, 0.06, -0.01, 15.25, 4.00, 26.82, 50.98, -63.74, -0.00, 0.10, 0.01, -1.50, 30.40, -29.33, 0.00, -0.00, -0.00, -2.06, 30.83, -29.90, 0.00, -0.00, -0.00
-220.00, 112.00, -32.00, 0.09, 0.00, 0.23, 15.13, 4.06, 2.75, 65.19, -43.32, 0.00, 0.11, 0.01, 0.08, 31.02, -31.15, -0.00, 0.00, 0.00, -1.86, 30.87, -29.93, 0.00, 0.00, 0.00
152.00, 0.00, 255.00, -0.22, 0.23, 0.02, 15.38, 4.10, 39.45, 57.19, -45.40, 0.00, 0.10, 0.01, -3.32, 30.13, -30.58, -0.00, -0.00, -0.00, -2.01, 30.59, -30.01, -0.00, -0.00, -0.00
-255.00, 255.00, 48.00, 0.25, 0.18, 0.14, 15.50, 4.07, -1.23, 72.65, -37.05, 0.00, 0.10, 0.01, -0.05, 29.01, -31.79, -0.00, -0.00, -0.00, -1.83, 29.99, -30.18, -0.00, -0.00, -0.00
255.00, 244.00, 208.00, -0.20, 0.09, -0.16, 15.63, 4.04, 33.78, 67.55, -36.79, 0.00, 0.10, 0.01, -3.01, 29.39, -31.93, -0.00, -0.00, -0.00, -1.96, 29.75, -30.30, -0.00, -0.00, -0.00
-255.00, 152.00, -228.00, 0.18, -0.10, -0.07, 15.50, 4.03, -8.21, 65.33, -46.90, 0.00, 0.11, 0.01, 1.57, 28.59, -30.03, -0.00, 0.00, -0.00, -1.62, 29.32, -30.32, -0.00, 0.00, -0.00
245.00, -165.00, -126.00, 0.04, -0.18, 0.17, 15.38, 4.06, 33.97, 46.13, -62.34, -0.01, 0.10, 0.01, -3.46, 32.56, -31.10, 0.01, 0.00, -0.00, -1.81, 30.47, -30.16, 0.00, -0.00, -0.00
81.00, -244.00, 236.00, -0.24, 0.18, -0.06, 15.63, 4.06, 44.67, 46.68, -60.54, 0.01, 0.10, 0.00, -2.72, 31.37, -29.44, -0.01, -0.00, -0.01, -1.89, 30.80, -30.07, -0.01, -0.00, -0.01
-255.00, 244.00, -111.00, 0.24, -0.06, -0.06, 15.63, 4.05, -7.88, 70.84, -40.21, 0.00, 0.10, 0.01, 0.11, 28.93, -31.44, -0.00, 0.00, -0.00, -1.71, 30.10, -30.23, -0.00, 0.00, -0.00
255.00, -111.00, -111.00, 0.01, 0.05, -0.05, 15.75, 4.06, 34.17, 46.84, -56.85, -0.00, 0.11, 0.01, -2.34, 30.71, -29.72, 0.00, 0.00, 0.00, -1.77, 30.33, -30.17, 0.00, 0.00, 0.00
32.00, 96.00, -96.00, -0.11, 0.22, 0.05, 15.38, 4.12, 12.86, 60.01, -42.87, 0.01, 0.10, 0.01, -2.54, 30.89, -30.80, -0.01, -0.00, -0.00, -1.85, 30.52, -30.17, -0.01, -0.00, -0.00
-174.00, 255.00, 95.00, -0.08, -0.08, 0.16, 15.25, 4.10, 4.68, 72.39, -35.03, 0.00, 0.11, 0.01, -1.12, 29.94, -31.76, -0.00, 0.00, -0.00, -1.79, 30.28, -30.27, -0.00, 0.00, -0.00
-137.00, -137.00, 226.00, 0.08, 0.06, -0.10, 15.63, 4.08, 26.97, 53.87, -54.17, -0.00, 0.10, 0.01, -2.80, 30.99, -30.62, 0.00, -0.01, -0.00, -1.89, 30.53, -30.25, 0.00, -0.01, -0.00
138.00, 110.00, -163.00, -0.19, -0.03, -0.13, 15.63, 4.10, 17.16, 58.84, -45.64, 0.00, 0.10, 0.01, -0.89, 30.10, -31.59, -0.00, -0.00, -0.00, -1.81, 30.35, -30.34, -0.00, -0.00, -0.00
-251.00, -65.00, -197.00, 0.05, 0.22, -0.24, 15.63, 4.09, 0.83, 56.30, -58.39, 0.00, 0.10, 0.01, 0.61, 31.05, -31.15, -0.00, -0.00, -0.00, -1.57, 30.58, -30.31, -0.00, -0.00, -0.00
96.00, 255.00, -255.00, -0.08, -0.21, 0.19, 15.63, 4.05, 4.93, 66.38, -41.86, -0.00, 0.10, 0.01, -1.14, 29.23, -30.97, 0.00, -0.00, -0.00, -1.54, 30.08, -30.42, 0.00, -0.00, -0.00
-139.00, -255.00, 252.00, -0.19, 0.04, 0.07, 15.50, 4.04, 33.37, 48.45, -62.25, -0.00, 0.10, 0.01, -1.85, 30.51, -29.44, 0.00, -0.00, 0.00, -1.56, 30.25, -30.35, 0.00, -0.00, 0.00
-253.00, 81.00, 125.00, -0.19, 0.05, 0.13, 15.50, 4.06, 8.14, 63.55, -42.79, 0.00, 0.10, 0.01, -0.94, 28.61, -30.21, -0.00, -0.00, -0.00, -1.50, 29.67, -30.43, -0.00, -0.00, -0.00
-252.00, 96.00, 198.00, 0.23, 0.12, -0.17, 15.50, 4.07, 10.90, 66.16, -42.63, 0.00, 0.10, 0.01, -0.87, 29.23, -30.97, -0.00, -0.00, -0.00, -1.44, 29.50, -30.48, -0.00, -0.00, -0.00
255.00, 187.00, -236.00, 0.03, 0.08, -0.20, 15.13, 4.04, 16.27, 61.30, -45.95, 0.00, 0.11, 0.01, -2.36, 29.51, -30.59, -0.00, 0.00, -0.00, -1.53, 29.51, -30.49, -0.00, 0.00, -0.00
65.00, 139.00, -255.00, -0.18, -0.17, 0.05, 15.63, 4.05, 7.13, 61.17, -46.32, 0.00, 0.10, 0.01, -1.34, 30.11, -30.52, -0.00, -0.00, -0.00, -1.51, 29.72, -30.45, -0.00, 0.00, -0.00
-245.00, -236.00, 96.00, 0.06, 0.17, -0.08, 15.75, 4.06, 20.20, 49.68, -62.41, -0.00, 0.11, 0.01, -0.96, 31.23, -29.20, 0.00, 0.00, -0.00, -1.45, 30.27, -30.29, 0.00, 0.00, -0.00
111.00, 236.00, -138.00, -0.22, 0.09, -0.14, 15.38, 4.07, 10.99, 65.67, -38.09, 0.00, 0.10, 0.01, -1.92, 29.75, -30.76, -0.00, 0.00, 0.00, -1.50, 30.08, -30.35, -0.00, 0.00, 0.00
-255.00, 151.00, -208.00, 0.16, -0.08, 0.08, 15.13, 4.06, -9.05, 67.30, -47.75, 0.00, 0.11, 0.01, 0.14, 30.54, -31.56, -0.00, 0.00, -0.00, -1.34, 30.22, -30.36, -0.00, 0.00, -0.00
227.00, -138.00, 138.00, -0.18, -0.10, 0.11, 15.75, 4.07, 44.17, 47.71, -54.47, 0.00, 0.10, 0.01, -3.33, 30.48, -29.73, -0.00, -0.00, -0.00, -1.53, 30.32, -30.33, -0.00, -0.00, -0.00
-244.00, -164.00, 176.00, 0.23, 0.03, 0.11, 15.63, 4.07, 19.83, 52.91, -57.67, -0.00, 0.10, 0.01, -2.22, 29.93, -30.46, 0.00, -0.00, -0.00, -1.61, 30.18, -30.36, -0.00, -0.00, -0.00
255.00, 65.00, 176.00, -0.16, 0.09, -0.14, 15.50, 4.07, 39.26, 57.75, -43.91, 0.00, 0.10, 0.01, -3.15, 29.81, -30.87, -0.00, -0.01, -0.00, -1.76, 30.05, -30.41, -0.00, -0.01, -0.00
-227.00, 151.00, -208.00, 0.18, 0.00, -0.20, 15.75, 4.07, -5.52, 65.30, -45.59, -0.00, 0.10, 0.01, 2.02, 29.20, -30.08, 0.00, -0.00, -0.00, -1.40, 29.73, -30.41, 0.00, -0.00, 0.00
244.00, 0.00, -255.00, -0.03, -0.02, -0.19, 15.50, 4.06, 23.22, 52.89, -54.62, 0.00, 0.10, 0.01, -1.39, 30.96, -29.31, -0.00, -0.01, -0.00, -1.39, 30.18, -30.28, -0.00, -0.01, -0.00
-65.00, -49.00, -252.00, 0.06, -0.03, 0.05, 15.88, 4.08, 7.10, 53.26, -55.89, 0.00, 0.10, 0.01, -1.33, 30.70, -30.03, -0.00, -0.01, -0.00, -1.38, 30.37, -30.24, -0.00, -0.01, -0.00
110.00, -65.00, 96.00, -0.07, 0.07, 0.06, 15.75, 4.13, 34.39, 53.23, -48.19, 0.00, 0.10, 0.01, -1.57, 31.90, -29.78, -0.00, -0.00, -0.00, -1.40, 30.92, -30.12, -0.00, -0.00, -0.00
-123.00, 123.00, 109.00, 0.17, 0.01, -0.24, 15.63, 4.13, 13.10, 64.91, -38.25, -0.00, 0.10, 0.01, -1.33, 30.49, -29.96, 0.00, -0.00, 0.00, -1.39, 30.77, -30.13, 0.00, -0.00, 0.00
234.00, 31.00, -255.00, 0.22, 0.08, -0.06, 15.50, 4.09, 20.94, 54.90, -52.79, -0.00, 0.11, 0.01, -1.80, 31.24, -29.33, 0.00, 0.00, -0.00, -1.42, 30.95, -30.07, 0.00, 0.00, -0.00
255.00, 138.00, -110.00, -0.16, 0.02, 0.04, 15.63, 4.07, 22.26, 60.49, -44.17, 0.00, 0.10, 0.01, -4.05, 31.33, -31.01, -0.00, -0.00, 0.00, -1.70, 31.07, -30.10, -0.00, -0.00, -0.00
-227.00, 49.00, 81.00, -0.08, -0.06, -0.20, 15.88, 4.10, 8.96, 63.10, -45.00, -0.00, 0.11, 0.01, -0.89, 31.02, -31.05, 0.00, 0.00, 0.00, -1.62, 31.03, -30.15, 0.00, 0.00, 0.00
-138.00, -110.00, -255.00, -0.21, -0.11, -0.02, 15.38, 4.09, 4.81, 51.02, -59.56, -0.00, 0.10, 0.01, -1.59, 30.45, -28.71, 0.00, -0.01, -0.00, -1.61, 30.85, -30.11, 0.00, -0.01, -0.00
-255.00, -175.00, -48.00, -0.13, 0.19, 0.24, 15.13, 4.08, 11.71, 50.48, -59.34, 0.00, 0.11, 0.01, 0.19, 30.24, -28.75, -0.00, 0.00, 0.00, -1.43, 30.65, -30.07, -0.00, 0.00, 0.00
-198.00, 251.00, 255.00, -0.17, 0.07, -0.05, 15.50, 4.04, 11.24, 74.45, -34.79, 0.01, 0.10, 0.01, -0.61, 29.35, -30.99, -0.01, -0.00, -0.00, -1.35, 30.17, -30.18, -0.00, -0.00, -0.00
-237.00, 125.00, -96.00, -0.12, 0.18, 0.08, 15.38, 4.06, -0.28, 65.70, -44.58, -0.00, 0.11, 0.01, 1.58, 30.71, -31.28, 0.00, 0.00, -0.00, -1.07, 30.33, -30.17, 0.00, 0.00, -0.00
-187.00, 244.00, 138.00, -0.04, -0.01, 0.14, 15.88, 4.07, 6.47, 73.27, -35.66, 0.00, 0.10, 0.01, -1.00, 30.73, -31.87, -0.00, -0.00, -0.00, -1.07, 30.44, -30.23, -0.00, -0.00, -0.00
-81.00, -32.00, 208.00, -0.15, -0.22, -0.02, 16.00, 4.09, 26.07, 58.11, -46.59, 0.00, 0.10, 0.01, -1.93, 31.14, -30.62, -0.00, 0.00, -0.00, -1.16, 30.69, -30.21, -0.00, 0.00, -0.00
-217.00, -255.00, -48.00, 0.04, 0.02, -0.22, 15.38, 4.09, 16.53, 47.27, -64.38, -0.00, 0.11, 0.01, -0.40, 31.78, -27.90, 0.00, 0.00, -0.00, -1.07, 31.10, -30.02, 0.00, 0.00, -0.00
80.00, 48.00, -255.00, -0.07, -0.01, -0.22, 15.13, 4.09, 11.46, 55.95, -50.85, 0.00, 0.10, 0.01, -1.48, 29.94, -30.32, -0.00, -0.00, -0.00, -1.11, 30.69, -30.10, -0.00, -0.00, -0.00
-124.00, -32.00, -255.00, -0.20, 0.12, -0.24, 15.50, 4.09, 2.95, 54.74, -55.28, 0.00, 0.10, 0.01, -1.01, 30.42, -29.64, -0.00, -0.00, 0.00, -1.10, 30.60, -30.10, -0.00, -0.00, 0.00
-255.00, 186.00, -255.00, 0.11, 0.01, 0.04, 15.50, 4.05, -11.24, 66.88, -46.39, 0.00, 0.10, 0.01, 1.33, 28.11, -29.84, -0.00, 0.00, 0.00, -0.86, 29.71, -30.21, -0.00, 0.00, 0.00
176.00, 32.00, 81.00, -0.10, 0.02, -0.09, 15.63, 4.08, 33.79, 57.34, -44.31, 0.00, 0.10, 0.01, -1.10, 31.70, -30.70, -0.00, 0.00, -0.00, -0.89, 30.41, -30.10, -0.00, 0.00, -0.00
-163.00, 48.00, -151.00, 0.01, -0.20, -0.10, 15.63, 4.12, -0.56, 59.98, -47.72, 0.00, 0.11, 0.01, -3.38, 30.80, -30.23, -0.00, 0.00, -0.00, -1.14, 30.55, -30.10, -0.01, 0.00, -0.00
32.00, -255.00, -162.00, -0.01, -0.16, 0.00, 15.38, 4.10, 23.95, 42.79, -66.46, -0.00, 0.10, 0.01, -2.80, 31.62, -29.03, 0.00, -0.00, -0.00, -1.30, 30.95, -29.98, -0.00, -0.00, -0.00
-32.00, -226.00, 0.00, -0.03, 0.05, 0.03, 15.63, 4.10, 27.64, 46.27, -60.83, 0.00, 0.10, 0.01, -1.77, 32.37, -29.83, -0.00, -0.01, -0.00, -1.34, 31.46, -29.89, -0.00, -0.01, -0.00
-64.00, 95.00, 64.00, 0.00, 0.02, -0.20, 15.75, 4.13, 14.83, 63.02, -40.82, 0.00, 0.11, 0.01, -2.26, 31.60, -31.38, -0.00, 0.00, 0.00, -1.45, 31.48, -29.96, -0.01, 0.00, 0.00
0.00, 48.00, -255.00, -0.23, 0.13, 0.14, 15.63, 4.13, 7.06, 58.24, -49.49, 0.00, 0.11, 0.01, -0.88, 31.37, -29.18, -0.00, 0.00, 0.00, -1.39, 31.45, -29.92, -0.00, 0.00, 0.00
-255.00, 196.00, 206.00, 0.01, 0.05, -0.05, 15.63, 4.07, 7.89, 72.24, -37.85, -0.00, 0.10, 0.01, -0.14, 29.58, -30.82, 0.00, -0.00, -0.00, -1.27, 30.77, -30.07, 0.00, -0.00, -0.00
32.00, 96.00, -96.00, 0.01, 0.14, 0.23, 15.63, 4.10, 14.79, 60.41, -42.94, 0.00, 0.11, 0.01, -0.64, 31.29, -30.91, -0.00, 0.00, -0.00, -1.22, 30.94, -30.07, -0.00, 0.00, -0.00
32.00, 207.00, 255.00, -0.04, 0.04, -0.08, 15.88, 4.10, 25.52, 69.45, -35.34, 0.04, 0.10, 0.01, -1.76, 29.94, -31.71, -0.04, -0.00, -0.00, -1.28, 30.55, -30.21, -0.04, -0.00, -0.00
-80.00, 80.00, -137.00, 0.23, -0.19, 0.00, 15.25, 4.11, 8.42, 58.89, -44.96, 0.01, 0.10, 0.01, 1.07, 29.39, -30.53, -0.01, -0.00, -0.00, -1.06, 30.13, -30.27, -0.00, -0.00, 0.00
255.00, -250.00, 0.00, 0.04, -0.22, 0.02, 15.63, 4.09, 43.74, 42.79, -64.60, -0.00, 0.10, 0.01, -3.62, 32.87, -28.86, 0.00, -0.00, -0.00, -1.30, 31.12, -30.03, -0.00, -0.00, -0.00
80.00, -255.00, 48.00, 0.05, 0.08, 0.02, 15.75, 4.08, 37.59, 43.85, -62.29, -0.00, 0.10, 0.01, -1.75, 31.92, -29.52, 0.00, -0.00, -0.00, -1.34, 31.41, -29.96, 0.00, -0.00, -0.00
96.00, 138.00, 48.00, -0.13, 0.03, 0.17, 15.50, 4.12, 22.71, 61.43, -37.36, 0.00, 0.11, 0.01, -1.62, 29.59, -29.81, -0.00, 0.00, -0.00, -1.37, 30.77, -30.06, -0.00, 0.00, -0.00
-196.00, 64.00, 234.00, 0.08, 0.00, -0.13, 15.75, 4.10, 15.87, 64.16, -42.47, 0.00, 0.10, 0.01, -2.19, 29.51, -30.29, -0.00, 0.00, -0.00, -1.45, 30.32, -30.15, -0.01, 0.00, -0.00
137.00, 0.00, -197.00, 0.18, 0.23, 0.09, 15.50, 4.10, 19.83, 54.12, -50.31, -0.00, 0.10, 0.01, -1.16, 31.29, -29.17, 0.00, -0.00, 0.00, -1.42, 30.68, -30.04, 0.00, -0.00, 0.00
243.00, 255.00, 150.00, -0.19, -0.06, 0.01, 15.50, 4.07, 31.64, 68.81, -34.98, 0.00, 0.10, 0.01, -1.68, 30.72, -30.93, -0.00, -0.00, -0.00, -1.45, 30.68, -30.08, -0.00, -0.00, -0.00
-251.00, -110.00, 32.00, 0.14, -0.04, -0.17, 15.63, 4.07, 11.98, 53.92, -54.09, 0.00, 0.10, 0.01, -0.88, 30.00, -29.66, -0.00, -0.00, 0.00, -1.39, 30.44, -30.10, -0.00, 0.00, 0.00
208.00, -81.00, -236.00, 0.15, 0.14, -0.03, 15.38, 4.08, 24.63, 48.57, -57.91, -0.00, 0.10, 0.01, -2.19, 30.52, -29.16, 0.00, -0.00, 0.00, -1.46, 30.49, -30.05, -0.00, -0.00, 0.00
218.00, 208.00, -65.00, 0.03, -0.18, -0.06, 15.75, 4.08, 22.58, 65.27, -39.55, 0.00, 0.10, 0.01, -1.00, 31.66, -31.52, -0.00, -0.01, -0.00, -1.43, 30.88, -30.04, 0.00, -0.00, -0.00
65.00, -244.00, -110.00, -0.10, -0.04, 0.05, 15.63, 4.09, 28.27, 42.68, -64.31, -0.00, 0.10, 0.01, -2.45, 31.17, -29.48, 0.00, -0.00, -0.00, -1.53, 30.99, -30.00, -0.00, -0.00, -0.00
-163.00, -80.00, 96.00, -0.07, 0.14, -0.13, 15.50, 4.11, 16.90, 55.23, -51.77, 0.00, 0.10, 0.01, -3.05, 31.15, -31.40, -0.00, 0.00, -0.00, -1.69, 31.03, -30.07, -0.00, -0.00, -0.00
-124.00, 207.00, -197.00, -0.18, 0.22, 0.04, 15.50, 4.10, -1.97, 67.19, -41.79, 0.00, 0.10, 0.01, 1.10, 30.02, -30.80, -0.00, -0.00, -0.00, -1.42, 30.64, -30.14, 0.00, -0.00, 0.00
-243.00, 255.00, 80.00, -0.04, -0.14, 0.10, 15.25, 4.06, 0.12, 72.98, -36.71, -0.00, 0.10, 0.01, -1.01, 29.38, -31.92, 0.00, -0.00, 0.00, -1.40, 30.16, -30.30, 0.00, -0.00, 0.00
-81.00, -209.00, 164.00, 0.18, 0.22, -0.16, 15.75, 4.07, 28.97, 48.90, -57.45, 0.00, 0.10, 0.01, -4.28, 31.48, -29.09, -0.00, -0.00, -0.00, -1.67, 30.65, -30.17, -0.00, -0.00, -0.00
244.00, 255.00, -227.00, -0.03, -0.06, 0.02, 15.75, 4.04, 14.44, 66.22, -42.94, -0.00, 0.10, 0.01, -1.56, 30.59, -31.12, 0.00, -0.00, -0.00, -1.67, 30.61, -30.22, 0.00, -0.00, -0.00
-65.00, -111.00, 49.00, -0.17, -0.12, 0.24, 15.63, 4.09, 23.31, 53.42, -52.22, 0.00, 0.10, 0.01, -1.74, 33.04, -30.50, -0.00, 0.00, 0.00, -1.68, 31.47, -30.07, -0.00, 0.00, 0.00
-235.00, -186.00, 255.00, -0.07, -0.17, -0.06, 15.75, 4.08, 24.42, 54.36, -58.81, -0.00, 0.10, 0.01, -2.56, 31.14, -29.95, 0.00, -0.01, -0.00, -1.76, 31.36, -30.09, 0.00, -0.01, -0.00
-124.00, -236.00, -110.00, -0.20, 0.16, -0.21, 15.63, 4.06, 14.56, 46.62, -63.83, -0.00, 0.10, 0.01, -4.49, 32.30, -29.11, 0.00, -0.01, -0.00, -2.03, 31.71, -29.99, -0.00, -0.01, -0.00
-255.00, 227.00, -255.00, 0.15, 0.25, 0.10, 15.25, 4.04, -12.88, 68.84, -44.84, 0.00, 0.10, 0.01, 1.05, 27.86, -30.07, -0.00, -0.00, -0.00, -1.74, 30.32, -30.19, 0.00, -0.00, -0.00
219.00, 255.00, 164.00, -0.13, 0.00, -0.03, 15.50, 4.03, 30.68, 68.66, -35.15, -0.00, 0.10, 0.01, -1.70, 30.32, -31.46, 0.00, -0.01, -0.00, -1.75, 30.30, -30.25, 0.00, -0.01, -0.00
-199.00, 0.00, -65.00, 0.12, 0.04, 0.11, 15.63, 4.09, 4.97, 58.84, -49.12, 0.00, 0.10, 0.01, -1.90, 31.25, -30.81, -0.00, -0.01, -0.00, -1.77, 30.63, -30.22, -0.00, -0.01, -0.00
186.00, 80.00, 175.00, 0.19, -0.07, 0.19, 15.63, 4.11, 36.36, 61.33, -41.54, 0.00, 0.10, 0.01, -1.55, 31.79, -30.80, -0.00, -0.01, 0.00, -1.75, 31.04, -30.17, -0.00, -0.00, 0.00
250.00, -124.00, 250.00, 0.07, -0.20, 0.15, 15.75, 4.07, 48.71, 50.70, -54.36, 0.00, 0.11, 0.01, -4.53, 31.02, -30.07, -0.00, 0.00, -0.00, -2.03, 31.04, -30.17, -0.00, 0.00, -0.00
125.00, -255.00, 218.00, 0.09, 0.09, 0.10, 15.50, 4.04, 45.53, 45.85, -62.04, -0.00, 0.10, 0.01, -3.89, 31.73, -29.77, 0.00, -0.00, -0.00, -2.21, 31.29, -30.12, 0.00, -0.00, -0.00
152.00, 152.00, 164.00, -0.09, 0.22, 0.14, 15.75, 4.07, 29.36, 64.48, -39.35, 0.00, 0.10, 0.01, -2.98, 30.97, -32.48, -0.00, 0.00, 0.00, -2.31, 31.13, -30.26, -0.00, 0.00, 0.00
-151.00, 255.00, 208.00, 0.10, -0.23, -0.02, 15.75, 4.07, 11.93, 73.11, -35.02, -0.00, 0.10, 0.01, -0.52, 29.51, -32.34, 0.00, -0.00, -0.00, -2.15, 30.50, -30.45, 0.01, -0.00, -0.00
164.00, -255.00, -49.00, -0.11, 0.15, 0.01, 15.50, 4.07, 36.04, 42.18, -64.69, -0.00, 0.10, 0.01, -3.71, 31.76, -29.56, 0.00, -0.00, -0.00, -2.30, 30.96, -30.33, -0.00, -0.00, -0.00
-176.00, 218.00, 32.00, 0.11, 0.23, 0.02, 15.50, 4.09, 4.46, 69.96, -36.16, 0.01, 0.10, 0.01, 0.34, 30.32, -30.64, -0.01, -0.00, -0.00, -2.04, 30.72, -30.36, -0.00, -0.00, -0.00
175.00, 255.00, 48.00, -0.09, 0.25, 0.16, 15.88, 4.08, 21.34, 68.20, -35.27, 0.00, 0.11, 0.01, -3.32, 30.66, -31.94, -0.00, 0.00, -0.00, -2.18, 30.67, -30.45, -0.01, 0.00, -0.00
-151.00, 255.00, 227.00, -0.11, 0.14, -0.02, 15.75, 4.05, 12.16, 73.12, -34.79, 0.00, 0.11, 0.01, -1.17, 29.25, -32.01, -0.00, 0.00, 0.00, -2.09, 30.13, -30.60, -0.00, 0.00, 0.00
-176.00, 209.00, -49.00, 0.05, 0.08, 0.16, 15.50, 4.07, 1.26, 67.86, -37.80, 0.00, 0.10, 0.01, 0.45, 29.41, -30.48, -0.00, -0.01, -0.00, -1.84, 29.87, -30.62, -0.00, -0.00, -0.00
96.00, 138.00, 227.00, -0.08, 0.22, -0.24, 15.75, 4.09, 30.04, 63.45, -37.33, 0.00, 0.10, 0.01, -2.42, 28.99, -30.40, -0.00, -0.00, -0.00, -1.90, 29.56, -30.67, -0.00, -0.00, -0.00
-138.00, 255.00, -255.00, -0.11, -0.02, 0.04, 15.50, 4.06, -9.02, 69.45, -41.95, -0.00, 0.10, 0.01, -1.10, 29.42, -30.33, 0.00, -0.00, -0.00, -1.82, 29.51, -30.65, 0.00, -0.00, -0.00
-176.00, -49.00, 81.00, 0.21, 0.12, -0.17, 15.38, 4.09, 15.97, 56.15, -46.78, 0.00, 0.10, 0.01, -1.20, 30.41, -28.09, -0.00, -0.00, -0.00, -1.74, 29.86, -30.47, -0.00, -0.00, -0.00
255.00, 186.00, -235.00, 0.25, 0.11, -0.03, 15.75, 4.07, 15.78, 62.00, -45.81, -0.00, 0.10, 0.01, -2.89, 30.21, -30.44, 0.00, 0.00, -0.00, -1.85, 29.99, -30.45, -0.00, -0.00, -0.00
255.00, 176.00, -65.00, -0.07, 0.18, 0.08, 15.63, 4.05, 25.07, 63.40, -40.62, 0.00, 0.10, 0.01, -1.84, 32.03, -30.30, -0.00, -0.00, -0.00, -1.85, 30.72, -30.31, -0.00, -0.00, -0.00
-125.00, 245.00, 139.00, 0.24, 0.07, 0.21, 15.50, 4.07, 9.97, 72.43, -33.56, 0.00, 0.10, 0.01, -1.29, 30.99, -30.74, -0.00, -0.00, -0.00, -1.80, 30.81, -30.31, -0.00, -0.00, -0.00
255.00, 125.00, 255.00, 0.10, 0.12, 0.11, 15.63, 4.05, 41.13, 64.22, -41.32, 0.00, 0.10, 0.01, -2.23, 31.57, -31.09, -0.00, -0.00, -0.00, -1.85, 31.07, -30.30, -0.00, -0.00, -0.00
164.00, 188.00, 176.00, -0.22, -0.20, -0.24, 15.50, 4.06, 28.68, 65.96, -37.62, 0.00, 0.10, 0.01, -3.52, 30.45, -32.11, -0.00, -0.00, -0.00, -2.04, 30.82, -30.43, -0.00, -0.00, -0.00
-255.00, -255.00, -255.00, 0.03, 0.13, 0.21, 15.25, 4.04, 4.53, 47.62, -71.18, 0.00, 0.10, 0.01, -0.69, 31.20, -27.65, -0.00, -0.01, -0.00, -1.88, 30.99, -30.26, -0.00, -0.01, -0.00
65.00, 199.00, 255.00, 0.18, 0.04, 0.13, 15.50, 4.04, 28.41, 68.30, -35.62, -0.00, 0.10, 0.01, -0.96, 29.87, -31.30, 0.00, 0.00, 0.00, -1.80, 30.57, -30.37, 0.00, 0.00, 0.00
245.00, 81.00, 199.00, 0.13, -0.05, -0.09, 15.25, 4.07, 38.83, 58.90, -42.27, -0.00, 0.10, 0.01, -3.35, 29.58, -30.31, 0.00, -0.00, -0.00, -1.95, 30.22, -30.44, 0.00, -0.00, -0.00
198.00, -96.00, -151.00, 0.13, -0.17, -0.21, 15.38, 4.09, 27.93, 49.04, -56.40, -0.00, 0.10, 0.01, -2.87, 31.72, -30.08, 0.00, -0.00, 0.00, -2.04, 30.76, -30.33, -0.00, -0.00, 0.00
197.00, -235.00, -255.00, -0.21, 0.14, 0.09, 15.63, 4.06, 27.61, 42.05, -68.85, 0.00, 0.09, 0.01, -3.78, 31.18, -28.24, -0.00, -0.01, -0.00, -2.19, 30.94, -30.21, -0.00, -0.01, -0.00
-255.00, 209.00, 152.00, 0.11, 0.01, 0.15, 15.50, 4.04, 6.04, 70.61, -36.74, 0.00, 0.11, 0.01, 0.69, 28.37, -30.12, -0.00, 0.00, -0.00, -1.92, 30.01, -30.33, 0.00, 0.00, -0.00
177.00, 32.00, 219.00, -0.15, -0.21, 0.21, 15.75, 4.07, 39.59, 58.43, -42.43, 0.00, 0.10, 0.01, -1.50, 30.65, -29.21, -0.00, -0.01, -0.00, -1.87, 30.26, -30.23, -0.00, -0.01, -0.00
-218.00, -255.00, 255.00, 0.23, -0.05, -0.04, 15.63, 4.04, 28.25, 49.94, -61.62, -0.00, 0.10, 0.01, -2.32, 30.31, -27.57, 0.00, -0.00, -0.00, -1.89, 30.32, -30.10, -0.00, -0.00, -0.00
255.00, -96.00, -81.00, -0.06, 0.14, 0.24, 15.50, 4.06, 34.96, 47.52, -53.95, 0.00, 0.10, 0.01, -2.31, 30.54, -28.56, -0.00, -0.00, 0.00, -1.92, 30.42, -30.02, -0.00, -0.00, 0.00
-111.00, 209.00, 255.00, 0.09, 0.20, 0.17, 15.88, 4.07, 16.38, 71.12, -34.62, 0.00, 0.10, 0.01, -2.15, 29.82, -30.37, -0.00, -0.01, -0.00, -1.95, 30.20, -30.07, -0.00, -0.01, -0.00
151.00, 255.00, 236.00, -0.24, 0.18, -0.21, 15.63, 4.04, 29.35, 70.34, -33.28, 0.00, 0.10, 0.01, -2.30, 29.95, -30.74, -0.00, -0.00, -0.00, -1.99, 30.10, -30.12, -0.00, -0.00, -0.00
-255.00, 245.00, -255.00, 0.11, -0.22, 0.15, 15.63, 4.02, -13.33, 70.84, -44.84, -0.00, 0.10, 0.01, 0.86, 29.03, -30.84, 0.00, -0.00, -0.00, -1.72, 29.69, -30.19, 0.01, 0.00, -0.00
177.00, -255.00, 220.00, 0.21, -0.05, 0.16, 15.50, 4.02, 48.66, 45.44, -62.35, -0.00, 0.10, 0.01, -3.62, 31.66, -29.56, 0.00, -0.00, 0.00, -1.90, 30.40, -30.04, -0.00, -0.00, -0.00
255.00, -97.00, 229.00, 0.20, -0.05, 0.18, 15.75, 4.04, 47.08, 52.34, -53.76, 0.00, 0.11, 0.01, -4.19, 31.77, -31.32, -0.00, 0.00, -0.00, -2.14, 30.87, -30.03, -0.00, 0.00, -0.00
255.00, -96.00, 245.00, -0.14, 0.23, -0.24, 15.50, 4.05, 48.06, 52.65, -53.27, -0.00, 0.10, 0.01, -3.93, 31.73, -30.79, 0.00, -0.01, -0.00, -2.33, 31.17, -30.02, 0.00, -0.01, -0.00
-209.00, 255.00, -255.00, 0.03, 0.01, 0.09, 15.50, 4.03, -10.80, 71.06, -42.96, 0.00, 0.11, 0.01, 1.10, 29.76, -30.23, -0.00, 0.00, 0.00, -1.99, 30.65, -30.08, -0.00, 0.00, 0.00
65.00, 32.00, 152.00, 0.04, -0.24, -0.21, 15.50, 4.08, 28.66, 57.57, -42.62, 0.00, 0.10, 0.01, -2.91, 29.93, -30.46, -0.00, -0.00, -0.00, -2.09, 30.39, -30.15, -0.00, -0.00, -0.00
80.00, -255.00, -255.00, 0.20, 0.06, -0.15, 15.75, 4.09, 23.27, 42.85, -68.66, 0.00, 0.10, 0.01, -2.01, 31.94, -27.46, -0.00, -0.00, -0.00, -2.06, 30.97, -29.91, -0.00, -0.00, -0.00
255.00, 110.00, -217.00, -0.18, 0.02, -0.04, 15.75, 4.05, 21.02, 57.47, -47.54, 0.00, 0.10, 0.01, -1.43, 29.90, -29.44, -0.00, -0.00, -0.00, -2.00, 30.60, -29.95, -0.00, -0.00, -0.00
-245.00, 49.00, -81.00, 0.01, 0.22, 0.24, 15.50, 4.08, -0.13, 61.87, -47.33, 0.00, 0.11, 0.01, -1.42, 30.66, -30.44, -0.00, 0.00, -0.00, -1.94, 30.61, -29.97, -0.00, 0.00, 0.00
32.00, 255.00, 255.00, -0.07, -0.16, 0.02, 15.75, 4.07, 24.20, 71.86, -32.59, 0.00, 0.10, 0.01, -1.32, 29.79, -30.98, -0.00, -0.01, -0.00, -1.89, 30.30, -30.06, -0.00, -0.01, 0.00
-125.00, -227.00, 49.00, 0.21, 0.08, 0.10, 15.50, 4.08, 23.68, 47.72, -60.07, 0.00, 0.10, 0.01, -2.37, 32.01, -29.00, -0.00, -0.00, -0.00, -1.93, 30.92, -29.90, -0.00, -0.00, -0.00
255.00, 138.00, 163.00, -0.08, 0.12, 0.21, 15.88, 4.08, 36.74, 63.36, -39.93, -0.00, 0.10, 0.01, -2.17, 31.64, -30.56, 0.00, -0.01, -0.00, -1.96, 31.17, -29.89, 0.00, -0.01, -0.00
-138.00, 187.00, 255.00, -0.20, 0.19, 0.01, 15.75, 4.06, 14.47, 69.94, -36.10, -0.00, 0.10, 0.01, -3.26, 29.46, -30.51, 0.00, 0.00, -0.00, -2.10, 30.55, -30.03, 0.00, 0.00, -0.00
-255.00, 252.00, 32.00, -0.19, -0.05, -0.15, 15.75, 4.05, -2.38, 73.02, -36.95, 0.00, 0.10, 0.01, -0.67, 29.78, -31.37, -0.00, -0.00, -0.00, -1.97, 30.25, -30.13, -0.00, -0.00, -0.00
-252.00, -96.00, -218.00, -0.01, 0.05, 0.08, 15.38, 4.05, -0.80, 53.92, -58.89, 0.00, 0.10, 0.01, -1.56, 30.19, -28.89, -0.00, -0.00, 0.00, -1.92, 30.24, -30.07, -0.00, -0.00, 0.00
-32.00, 96.00, 139.00, -0.17, 0.15, -0.18, 15.63, 4.10, 21.57, 63.65, -39.02, -0.04, 0.10, 0.01, -0.95, 31.69, -30.22, 0.04, -0.00, -0.00, -1.82, 30.75, -29.98, 0.04, -0.00, -0.00
-235.00, 217.00, -243.00, -0.01, -0.06, 0.11, 15.50, 4.08, -10.77, 70.05, -43.45, -0.00, 0.11, 0.01, 1.43, 30.01, -29.21, 0.00, 0.00, -0.00, -1.50, 30.47, -29.96, 0.00, 0.00, 0.00
-32.00, -110.00, 175.00, 0.23, -0.21, -0.16, 15.75, 4.08, 28.97, 53.48, -51.51, 0.00, 0.10, 0.01, -3.79, 31.74, -30.80, -0.00, 0.00, -0.00, -1.73, 30.91, -29.94, -0.00, -0.00, -0.00
255.00, -255.00, -227.00, -0.05, 0.10, 0.11, 15.75, 4.06, 33.84, 41.70, -70.10, 0.00, 0.11, 0.01, -2.94, 32.41, -27.84, -0.00, 0.00, -0.00, -1.83, 31.47, -29.74, -0.00, 0.00, -0.00
-96.00, 164.00, 176.00, -0.04, -0.18, -0.10, 15.38, 4.06, 15.96, 65.92, -36.57, 0.00, 0.10, 0.01, -1.72, 28.93, -30.47, -0.00, -0.00, -0.00, -1.83, 30.56, -29.92, -0.00, -0.00, -0.00
-81.00, -244.00, -164.00, 0.06, -0.04, 0.05, 15.63, 4.09, 17.92, 44.74, -65.04, 0.00, 0.10, 0.01, -1.50, 31.63, -28.23, -0.00, -0.01, -0.00, -1.78, 30.96, -29.77, -0.00, -0.01, -0.00
110.00, -80.00, 96.00, -0.12, 0.01, -0.03, 15.63, 4.11, 35.66, 51.89, -48.38, -0.00, 0.10, 0.01, -0.88, 31.31, -28.99, -0.00, -0.01, -0.00, -1.69, 31.09, -29.70, 0.00, -0.01, -0.00
-186.00, 32.00, -64.00, -0.10, 0.20, -0.11, 15.38, 4.13, 4.98, 59.76, -46.21, 0.00, 0.11, 0.01, -1.14, 30.71, -29.85, -0.00, 0.00, 0.00, -1.64, 30.95, -29.73, -0.00, 0.00, 0.00
-162.00, 255.00, -174.00, 0.02, 0.19, 0.01, 15.63, 4.09, -6.68, 70.32, -39.18, 0.00, 0.11, 0.01, -0.73, 29.81, -30.63, -0.00, 0.00, 0.00, -1.56, 30.53, -29.83, 0.00, 0.00, 0.00
48.00, 251.00, 32.00, -0.01, -0.17, -0.13, 15.75, 4.08, 15.26, 68.59, -32.42, -0.00, 0.10, 0.01, -1.28, 30.28, -29.80, 0.00, -0.01, -0.00, -1.53, 30.44, -29.84, 0.00, -0.01, -0.00
-32.00, -235.00, -197.00, -0.06, -0.13, -0.02, 15.63, 4.09, 18.17, 45.43, -64.78, -0.00, 0.10, 0.01, -2.35, 32.58, -27.78, 0.00, -0.00, -0.00, -1.59, 31.22, -29.61, 0.00, -0.00, -0.00
-110.00, -197.00, -48.00, -0.13, -0.08, -0.01, 15.63, 4.10, 20.05, 47.85, -58.16, 0.00, 0.10, 0.01, -1.23, 31.80, -28.07, -0.00, -0.00, -0.00, -1.55, 31.44, -29.49, -0.00, -0.00, -0.00
-197.00, -138.00, -32.00, 0.15, 0.00, -0.14, 15.63, 4.11, 12.86, 51.32, -54.27, -0.00, 0.10, 0.01, -1.40, 30.66, -27.73, 0.00, -0.00, 0.00, -1.52, 31.19, -29.45, -0.00, -0.00, 0.00
217.00, 0.00, -207.00, -0.22, -0.02, 0.21, 15.50, 4.10, 24.03, 53.17, -51.34, 0.00, 0.10, 0.01, -1.25, 31.10, -28.57, -0.00, -0.00, -0.00, -1.48, 31.17, -29.41, -0.00, -0.00, -0.00
-255.00, -48.00, 255.00, -0.02, 0.12, 0.09, 15.25, 4.07, 18.21, 59.78, -49.82, -0.00, 0.11, 0.01, -1.89, 29.25, -30.02, 0.00, 0.00, -0.00, -1.53, 30.48, -29.55, 0.00, 0.00, -0.00
-49.00, 187.00, 151.00, 0.23, 0.10, 0.04, 15.50, 4.08, 17.71, 68.74, -36.80, -0.00, 0.10, 0.01, -0.77, 31.43, -32.15, 0.00, -0.01, -0.00, -1.47, 30.78, -29.61, 0.00, -0.00, -0.00
255.00, 163.00, 80.00, -0.13, -0.15, -0.11, 15.50, 4.09, 32.77, 62.69, -39.21, 0.00, 0.10, 0.01, -1.46, 30.77, -30.53, -0.00, -0.00, -0.00, -1.48, 30.76, -29.66, -0.00, -0.00, -0.00
-197.00, -217.00, -175.00, 0.13, -0.07, -0.11, 15.25, 4.07, 11.36, 47.95, -64.97, -0.00, 0.10, 0.01, 0.47, 31.47, -28.63, 0.00, -0.00, -0.00, -1.28, 31.02, -29.54, 0.00, -0.00, -0.00
198.00, -125.00, -176.00, -0.24, -0.21, -0.05, 15.63, 4.07, 28.69, 48.76, -59.82, 0.00, 0.10, 0.01, -2.09, 32.84, -30.78, -0.00, -0.00, 0.00, -1.38, 31.65, -29.49, -0.00, -0.00, 0.00
-255.00, -255.00, -96.00, 0.13, 0.17, 0.25, 15.63, 4.06, 12.20, 47.84, -67.30, -0.00, 0.10, 0.01, -0.19, 31.49, -29.22, 0.00, -0.00, -0.00, -1.26, 31.59, -29.48, 0.00, -0.00, -0.00
198.00, 236.00, 255.00, -0.19, -0.19, 0.05, 15.63, 4.03, 32.97, 68.58, -35.25, 0.00, 0.10, 0.01, -2.81, 29.35, -31.08, -0.00, -0.00, -0.00, -1.43, 30.77, -29.70, -0.00, -0.00, -0.00
-253.00, -253.00, 97.00, -0.06, 0.05, -0.22, 15.63, 4.04, 21.29, 48.96, -62.31, 0.00, 0.10, 0.01, -0.06, 31.00, -27.65, -0.00, -0.00, 0.00, -1.28, 30.87, -29.57, -0.00, -0.00, 0.00
-111.00, 96.00, -255.00, -0.13, -0.24, -0.04, 15.75, 4.07, -2.34, 61.53, -47.59, -0.00, 0.10, 0.01, -1.91, 30.64, -29.17, 0.00, -0.00, -0.00, -1.34, 30.80, -29.57, 0.00, -0.00, -0.00
-198.00, -255.00, -81.00, 0.21, 0.17, 0.16, 15.50, 4.07, 14.56, 46.24, -64.44, 0.00, 0.10, 0.01, -2.02, 31.30, -27.68, -0.00, -0.00, -0.00, -1.39, 31.00, -29.45, -0.00, -0.00, -0.00
255.00, 236.00, 227.00, 0.00, -0.10, -0.07, 15.63, 4.04, 35.44, 67.85, -36.19, -0.00, 0.10, 0.01, -2.48, 29.74, -30.98, 0.00, 0.00, -0.00, -1.51, 30.53, -29.60, 0.00, 0.00, -0.00
0.00, -165.00, -125.00, -0.16, -0.21, -0.08, 15.38, 4.08, 21.29, 46.51, -57.47, 0.00, 0.10, 0.01, -1.78, 30.63, -28.67, -0.00, -0.00, -0.00, -1.53, 30.58, -29.55, -0.00, -0.00, -0.00
-227.00, -255.00, -138.00, 0.00, 0.09, -0.08, 15.75, 4.08, 11.62, 47.46, -67.04, -0.00, 0.10, 0.01, -0.50, 32.01, -28.15, 0.00, -0.00, -0.00, -1.42, 31.10, -29.38, 0.00, 0.00, -0.00
0.00, 151.00, -138.00, -0.17, -0.16, 0.20, 15.25, 4.09, 10.16, 63.90, -41.20, 0.00, 0.10, 0.01, 0.80, 31.54, -30.60, -0.01, -0.00, -0.00, -1.20, 31.22, -29.40, -0.00, -0.00, 0.00
-235.00, -226.00, 255.00, -0.18, -0.11, 0.16, 15.88, 4.07, 27.36, 52.35, -60.39, -0.00, 0.10, 0.01, -1.16, 31.02, -28.33, 0.00, -0.00, 0.00, -1.19, 31.17, -29.35, 0.00, -0.00, 0.00
-244.00, -176.00, 227.00, 0.25, 0.21, 0.08, 15.75, 4.03, 22.58, 54.19, -58.36, 0.00, 0.10, 0.01, -2.18, 30.84, -30.37, -0.00, -0.00, -0.00, -1.30, 31.04, -29.43, -0.00, -0.00, -0.00
255.00, 255.00, 139.00, -0.18, 0.25, -0.01, 15.50, 4.04, 30.55, 68.09, -35.81, 0.01, 0.10, 0.01, -2.84, 30.49, -31.29, -0.01, -0.00, 0.00, -1.47, 30.81, -29.56, -0.01, -0.00, 0.00
-245.00, 255.00, -32.00, 0.25, -0.21, -0.10, 15.50, 4.04, -4.28, 72.07, -37.58, 0.00, 0.11, 0.01, -0.24, 29.50, -31.25, -0.00, 0.00, -0.00, -1.36, 30.31, -29.71, -0.00, 0.00, -0.00
255.00, -255.00, -164.00, 0.15, -0.10, -0.22, 15.63, 4.04, 37.99, 41.95, -68.62, 0.00, 0.10, 0.01, -1.57, 32.62, -28.91, -0.00, 0.00, -0.00, -1.37, 31.14, -29.52, -0.00, 0.00, -0.00
219.00, -165.00, -255.00, -0.01, 0.19, -0.13, 15.38, 4.04, 27.81, 46.19, -64.07, -0.00, 0.11, 0.01, -2.10, 32.18, -28.71, 0.00, 0.00, -0.00, -1.44, 31.52, -29.42, 0.00, 0.00, -0.00
-32.00, 253.00, -199.00, -0.15, 0.23, -0.05, 15.25, 4.06, 0.72, 68.31, -38.79, 0.00, 0.10, 0.01, -0.38, 30.08, -30.32, -0.00, 0.00, -0.00, -1.34, 30.99, -29.54, -0.00, 0.00, -0.00
-218.00, 255.00, -96.00, 0.02, -0.22, 0.09, 15.63, 4.06, -6.23, 71.57, -38.70, -0.00, 0.10, 0.01, -0.74, 29.89, -31.54, 0.00, -0.00, -0.00, -1.30, 30.56, -29.70, 0.00, -0.00, -0.00
49.00, -255.00, 152.00, -0.20, 0.24, 0.15, 15.63, 4.07, 40.82, 45.43, -60.98, -0.00, 0.11, 0.01, -1.41, 31.85, -29.04, 0.00, 0.00, -0.00, -1.31, 31.02, -29.59, 0.00, 0.00, -0.00
-255.00, 255.00, 218.00, -0.09, -0.14, -0.22, 15.75, 4.04, 7.78, 75.30, -36.39, 0.00, 0.09, 0.01, 1.15, 29.33, -31.80, -0.00, -0.01, -0.00, -1.08, 30.37, -29.78, -0.00, -0.01, 0.00
-152.00, -209.00, -255.00, 0.23, -0.08, -0.02, 15.50, 4.03, 8.99, 47.65, -65.48, -0.00, 0.10, 0.01, -0.81, 31.44, -27.56, 0.00, -0.00, -0.00, -1.04, 30.77, -29.60, 0.00, -0.00, -0.00
255.00, -139.00, -49.00, 0.09, 0.04, 0.06, 15.63, 4.07, 39.01, 45.95, -56.65, -0.00, 0.10, 0.01, -1.57, 30.97, -29.01, 0.00, -0.00, -0.00, -1.08, 30.85, -29.56, 0.00, -0.00, -0.00
151.00, 81.00, 111.00, 0.21, 0.21, -0.07, 15.63, 4.11, 31.19, 60.74, -41.67, 0.00, 0.10, 0.01, -1.66, 31.83, -31.23, -0.00, -0.00, -0.00, -1.16, 31.17, -29.58, -0.00, -0.00, -0.00
255.00, 255.00, -124.00, 0.25, -0.05, 0.02, 15.63, 4.07, 20.07, 66.12, -39.39, 0.00, 0.09, 0.01, -1.29, 30.51, -31.01, -0.00, -0.01, -0.00, -1.19, 30.91, -29.70, -0.00, -0.01, -0.00
255.00, -96.00, 49.00, 0.05, 0.04, 0.12, 15.63, 4.07, 39.24, 50.01, -54.15, 0.00, 0.10, 0.01, -4.14, 32.15, -31.00, -0.00, -0.00, -0.00, -1.50, 31.33, -29.69, -0.00, -0.00, -0.00
96.00, 81.00, 187.00, 0.09, 0.00, 0.24, 15.75, 4.11, 30.47, 59.79, -40.22, 0.00, 0.10, 0.01, -2.56, 29.17, -30.59, -0.00, -0.00, -0.00, -1.62, 30.55, -29.87, -0.00, -0.00, -0.00
150.00, 0.00, 255.00, 0.14, -0.18, -0.11, 15.50, 4.10, 39.27, 57.23, -44.97, 0.00, 0.11, 0.01, -3.41, 30.14, -30.21, -0.00, 0.00, -0.00, -1.80, 30.40, -29.92, -0.00, 0.00, -0.00
207.00, -243.00, -175.00, 0.18, 0.17, -0.05, 15.50, 4.06, 33.48, 42.31, -66.71, -0.00, 0.10, 0.01, -2.44, 32.03, -28.53, 0.00, -0.00, -0.00, -1.85, 31.00, -29.75, -0.00, -0.00, -0.00
244.00, 236.00, -96.00, 0.16, -0.08, 0.24, 15.88, 4.05, 21.53, 65.74, -39.67, -0.00, 0.10, 0.01, -1.14, 31.06, -31.46, 0.00, -0.00, -0.00, -1.79, 30.99, -29.83, 0.00, -0.00, -0.00
228.00, -139.00, 255.00, -0.11, -0.07, -0.07, 15.50, 4.05, 49.62, 51.17, -54.34, 0.00, 0.10, 0.01, -2.96, 31.84, -29.55, -0.00, -0.00, -0.00, -1.91, 31.29, -29.76, -0.00, -0.00, -0.00
-176.00, -125.00, -125.00, 0.17, 0.24, 0.24, 15.50, 4.08, 9.34, 51.74, -55.76, 0.00, 0.10, 0.01, -1.43, 31.23, -28.38, -0.00, -0.00, -0.00, -1.85, 31.29, -29.69, -0.00, -0.00, -0.00
236.00, 255.00, 255.00, 0.12, -0.02, -0.17, 15.63, 4.05, 34.52, 69.63, -35.36, 0.00, 0.10, 0.01, -2.91, 29.63, -31.34, -0.00, 0.00, -0.00, -1.97, 30.67, -29.88, -0.00, 0.00, -0.00
188.00, -49.00, -237.00, 0.01, 0.20, 0.00, 15.63, 4.05, 23.98, 49.71, -53.96, -0.00, 0.10, 0.01, -0.22, 29.75, -27.74, 0.00, -0.00, -0.00, -1.79, 30.37, -29.82, 0.00, -0.00, -0.00
32.00, 255.00, 0.00, 0.23, 0.09, -0.06, 15.38, 4.10, 12.60, 68.82, -33.67, -0.00, 0.10, 0.01, -1.33, 30.35, -30.84, 0.00, -0.00, 0.00, -1.75, 30.35, -29.86, 0.00, -0.00, 0.00
255.00, 150.00, -110.00, 0.23, 0.16, 0.14, 15.50, 4.09, 24.25, 62.12, -43.85, 0.00, 0.11, 0.01, -1.63, 32.27, -31.24, -0.00, 0.00, 0.00, -1.75, 31.01, -29.81, -0.00, 0.00, 0.00
255.00, 226.00, 207.00, -0.10, 0.21, 0.17, 15.50, 4.05, 34.93, 68.09, -36.28, 0.00, 0.10, 0.01, -2.52, 30.89, -30.68, -0.00, -0.00, -0.00, -1.83, 30.95, -29.86, -0.00, -0.00, -0.00
-164.00, 255.00, 237.00, 0.03, -0.07, 0.08, 15.63, 4.03, 12.36, 74.44, -34.33, 0.01, 0.10, 0.01, -0.69, 30.29, -31.22, -0.01, -0.00, -0.00, -1.73, 30.69, -29.96, -0.01, -0.00, -0.00
65.00, -126.00, 139.00, -0.09, -0.14, 0.01, 15.50, 4.08, 32.29, 50.83, -52.91, 0.00, 0.10, 0.01, -5.33, 31.52, -30.95, -0.00, -0.00, -0.00, -2.10, 30.97, -29.97, -0.01, -0.00, -0.00
-151.00, -208.00, 32.00, 0.11, -0.10, -0.03, 15.25, 4.11, 21.43, 47.94, -58.89, 0.00, 0.10, 0.01, -1.54, 31.15, -28.62, -0.00, -0.00, -0.00, -2.04, 31.05, -29.88, -0.00, -0.00, -0.00
174.00, -163.00, -64.00, -0.18, -0.21, 0.16, 15.50, 4.11, 32.17, 45.83, -59.25, 0.00, 0.10, 0.01, -4.13, 31.41, -30.92, -0.00, -0.00, -0.00, -2.26, 31.17, -29.92, -0.00, -0.00, -0.00
-243.00, -255.00, 226.00, 0.24, 0.20, -0.15, 15.63, 4.06, 26.02, 50.34, -62.60, 0.00, 0.11, 0.01, -1.80, 30.71, -28.07, -0.00, 0.00, 0.00, -2.20, 31.03, -29.85, -0.00, 0.00, 0.00
255.00, 255.00, -218.00, -0.19, -0.01, 0.03, 15.88, 4.02, 15.90, 65.48, -42.44, 0.00, 0.11, 0.01, -1.19, 30.08, -30.73, -0.00, 0.00, 0.00, -2.11, 30.67, -29.94, -0.00, 0.00, 0.00
-253.00, -32.00, 65.00, 0.06, 0.06, -0.06, 15.25, 4.06, 10.68, 58.78, -48.73, 0.00, 0.10, 0.01, -0.36, 30.56, -29.52, -0.01, -0.00, -0.00, -1.93, 30.63, -29.92, -0.00, -0.00, -0.00
111.00, 111.00, -111.00, -0.16, -0.04, 0.22, 15.38, 4.12, 17.30, 58.77, -42.20, -0.00, 0.10, 0.01, -1.53, 29.63, -30.05, 0.00, 0.00, 0.00, -1.89, 30.27, -29.98, 0.00, 0.00, 0.00
-226.00, -80.00, 255.00, -0.23, 0.19, -0.08, 15.50, 4.09, 23.14, 58.33, -51.26, 0.00, 0.10, 0.01, -0.09, 30.14, -30.03, -0.00, -0.00, 0.00, -1.72, 30.22, -29.98, -0.00, -0.00, 0.00
-255.00, 251.00, -138.00, 0.14, -0.01, 0.07, 15.75, 4.04, -9.41, 71.19, -39.70, 0.00, 0.10, 0.01, 0.01, 28.97, -30.45, -0.00, -0.00, 0.00, -1.55, 29.76, -30.06, -0.00, -0.00, 0.00
209.00, -32.00, 125.00, -0.22, 0.10, 0.07, 15.63, 4.08, 39.99, 53.24, -45.78, 0.00, 0.10, 0.01, -1.53, 30.71, -28.23, -0.00, -0.00, 0.00, -1.54, 30.12, -29.91, -0.00, -0.00, 0.00
-255.00, 163.00, 124.00, -0.12, 0.24, -0.23, 15.63, 4.08, 5.86, 68.47, -38.31, 0.00, 0.11, 0.01, 0.29, 28.97, -29.58, -0.00, 0.00, -0.00, -1.36, 29.71, -29.95, -0.00, 0.00, -0.00
-187.00, 255.00, -255.00, 0.15, 0.24, -0.13, 15.50, 4.04, -10.65, 70.24, -41.99, 0.00, 0.10, 0.01, 0.02, 29.37, -29.65, -0.00, -0.00, 0.00, -1.22, 29.59, -29.94, -0.00, -0.00, 0.00
219.00, 255.00, -199.00, 0.10, -0.01, -0.16, 15.63, 4.03, 14.47, 66.15, -39.99, 0.01, 0.11, 0.01, -1.41, 30.39, -29.74, -0.01, 0.00, -0.00, -1.24, 29.88, -29.89, -0.01, 0.00, -0.00
165.00, -32.00, -229.00, -0.08, 0.19, 0.04, 15.63, 4.06, 21.56, 51.62, -53.46, 0.00, 0.10, 0.01, -0.96, 30.62, -28.91, -0.00, -0.00, 0.00, -1.20, 30.15, -29.79, -0.00, -0.00, 0.00
-138.00, 252.00, 81.00, 0.00, 0.13, 0.05, 15.63, 4.09, 6.45, 72.10, -34.60, 0.00, 0.10, 0.01, -1.07, 30.74, -31.61, -0.00, -0.00, 0.00, -1.21, 30.33, -29.84, -0.00, -0.00, 0.00
0.00, 197.00, 96.00, -0.09, -0.03, -0.07, 15.63, 4.11, 16.44, 68.43, -35.14, -0.00, 0.10, 0.01, -2.07, 31.83, -30.96, 0.00, -0.00, -0.00, -1.30, 30.85, -29.80, 0.00, -0.00, -0.00
-150.00, -64.00, -124.00, -0.17, 0.11, -0.19, 15.50, 4.12, 8.81, 54.43, -52.59, 0.00, 0.10, 0.01, -0.88, 31.40, -29.53, -0.00, -0.01, -0.00, -1.26, 31.05, -29.75, -0.00, -0.01, -0.00
-234.00, 174.00, -250.00, 0.18, 0.24, -0.20, 15.88, 4.07, -9.30, 66.54, -45.88, -0.00, 0.10, 0.01, 1.55, 28.89, -29.51, 0.00, -0.00, -0.00, -0.99, 30.27, -29.84, 0.00, -0.00, -0.00
244.00, 255.00, -255.00, 0.17, -0.10, 0.04, 15.63, 4.02, 13.69, 65.59, -43.61, 0.00, 0.10, 0.01, -1.12, 30.00, -30.51, -0.00, -0.00, -0.00, -1.01, 30.16, -29.89, -0.00, -0.00, -0.00
238.00, -165.00, 81.00, -0.16, -0.19, -0.07, 15.63, 4.05, 42.40, 47.08, -56.97, 0.00, 0.11, 0.01, -4.08, 31.98, -29.75, -0.00, 0.00, -0.00, -1.31, 30.81, -29.78, -0.00, 0.00, -0.00
-228.00, -252.00, -125.00, -0.01, 0.01, -0.23, 15.50, 4.06, 12.58, 47.33, -64.97, 0.00, 0.10, 0.01, -0.02, 31.65, -26.82, -0.00, -0.00, -0.00, -1.16, 31.14, -29.57, 0.00, -0.00, -0.00
-32.00, 32.00, -255.00, 0.02, -0.09, 0.13, 15.63, 4.08, 5.66, 56.12, -49.91, -0.00, 0.10, 0.01, -1.24, 29.76, -28.73, 0.00, -0.00, -0.00, -1.16, 30.67, -29.61, 0.00, -0.00, -0.00
48.00, -151.00, 197.00, 0.25, 0.00, -0.08, 15.63, 4.11, 37.62, 51.27, -53.45, -0.00, 0.10, 0.01, -2.76, 32.10, -29.80, 0.00, -0.00, -0.00, -1.32, 31.17, -29.54, -0.00, -0.00, -0.00
255.00, 0.00, -137.00, 0.25, -0.14, -0.21, 15.38, 4.10, 28.25, 53.27, -51.10, 0.00, 0.10, 0.01, -2.54, 31.61, -29.95, -0.00, -0.00, -0.00, -1.45, 31.32, -29.54, -0.01, -0.00, -0.00
255.00, -207.00, -255.00, -0.01, -0.16, -0.21, 15.25, 4.05, 31.12, 44.01, -67.32, -0.00, 0.10, 0.01, -2.58, 32.43, -27.81, 0.00, -0.00, -0.00, -1.55, 31.74, -29.38, 0.00, -0.00, -0.00
-32.00, -228.00, -255.00, -0.22, -0.19, -0.15, 15.50, 4.04, 15.61, 45.81, -67.11, -0.00, 0.10, 0.01, -2.04, 32.30, -28.66, 0.00, -0.00, 0.00, -1.59, 31.95, -29.31, 0.00, -0.00, 0.00
-255.00, -253.00, -219.00, -0.18, 0.13, -0.17, 15.75, 4.03, 6.47, 47.43, -69.63, 0.00, 0.10, 0.01, -0.32, 30.99, -27.91, -0.00, -0.01, -0.00, -1.46, 31.63, -29.29, -0.00, -0.01, -0.00
-245.00, 199.00, -237.00, -0.21, 0.08, 0.10, 15.63, 4.02, -10.92, 68.36, -44.56, 0.00, 0.10, 0.01, 0.31, 29.35, -29.62, -0.00, -0.00, -0.00, -1.29, 30.81, -29.42, -0.00, -0.00, -0.00
-255.00, 139.00, 165.00, 0.13, -0.14, 0.18, 15.38, 4.05, 8.54, 70.32, -41.65, 0.01, 0.10, 0.01, 0.04, 31.64, -31.96, -0.01, -0.00, -0.00, -1.18, 31.06, -29.48, -0.00, -0.00, -0.00
199.00, -209.00, 245.00, -0.04, -0.13, 0.12, 15.50, 4.05, 50.00, 47.37, -57.99, 0.00, 0.10, 0.01, -3.24, 31.31, -28.43, -0.00, -0.00, -0.00, -1.37, 31.17, -29.43, -0.01, -0.00, -0.00
-81.00, -199.00, 188.00, -0.23, 0.24, 0.23, 15.63, 4.06, 33.22, 50.18, -55.47, 0.00, 0.11, 0.01, -0.69, 31.87, -27.91, -0.00, 0.01, -0.00, -1.29, 31.43, -29.30, -0.00, 0.01, -0.00
-255.00, 255.00, 255.00, 0.01, 0.17, -0.06, 15.75, 4.04, 8.65, 75.12, -36.14, 0.00, 0.11, 0.01, 0.41, 28.42, -31.48, -0.00, 0.00, -0.00, -1.14, 30.31, -29.56, -0.00, 0.00, -0.00
32.00, 237.00, -111.00, 0.06, 0.02, -0.09, 15.63, 4.06, 9.79, 67.55, -37.56, -0.00, 0.10, 0.01, 0.30, 30.82, -31.48, 0.00, -0.00, 0.00, -1.01, 30.45, -29.61, 0.00, -0.00, 0.00
111.00, 49.00, -152.00, 0.09, -0.20, 0.20, 15.75, 4.12, 17.58, 55.20, -46.38, 0.00, 0.10, 0.01, -1.87, 29.50, -29.88, -0.00, -0.00, -0.00, -1.10, 30.11, -29.69, -0.00, -0.00, -0.00
150.00, -255.00, 255.00, -0.19, -0.04, 0.18, 15.63, 4.08, 48.60, 45.94, -61.56, 0.00, 0.10, 0.01, -4.23, 31.41, -28.71, -0.00, -0.01, -0.00, -1.40, 30.59, -29.57, -0.00, -0.01, -0.00
-251.00, -80.00, 244.00, -0.02, -0.21, -0.23, 15.63, 4.04, 20.42, 59.54, -51.91, 0.00, 0.10, 0.01, -0.78, 30.99, -30.35, -0.00, -0.00, -0.00, -1.35, 30.71, -29.58, -0.00, -0.00, -0.00
-49.00, -255.00, -255.00, -0.01, 0.04, 0.16, 15.38, 4.05, 15.77, 43.69, -69.15, -0.00, 0.11, 0.01, -1.85, 31.25, -28.21, 0.00, 0.00, -0.00, -1.39, 30.92, -29.48, 0.00, 0.00, -0.00
-32.00, 81.00, 228.00, -0.04, 0.18, -0.07, 15.75, 4.08, 24.19, 62.55, -40.12, 0.00, 0.10, 0.01, -2.92, 29.89, -30.58, -0.00, 0.00, -0.00, -1.55, 30.54, -29.61, -0.01, 0.00, -0.00
-80.00, 244.00, -124.00, -0.22, 0.16, 0.08, 15.50, 4.10, -0.44, 68.66, -36.60, 0.00, 0.10, 0.01, -2.11, 30.04, -30.16, -0.00, -0.00, -0.00, -1.61, 30.36, -29.66, -0.00, -0.00, -0.00
-255.00, 226.00, 137.00, 0.01, -0.15, 0.18, 15.38, 4.06, 4.36, 71.76, -37.61, -0.00, 0.10, 0.01, 0.42, 28.67, -31.72, 0.00, -0.01, -0.00, -1.43, 29.71, -29.84, 0.01, -0.01, -0.00
32.00, -218.00, 244.00, -0.02, 0.18, -0.13, 15.88, 4.06, 41.99, 48.35, -57.54, 0.00, 0.10, 0.01, -1.81, 31.17, -28.85, -0.00, -0.00, -0.00, -1.46, 30.24, -29.71, -0.00, -0.00, -0.00
-49.00, 244.00, -198.00, -0.12, 0.20, -0.08, 15.63, 4.07, -0.70, 67.35, -39.64, 0.00, 0.10, 0.01, -1.00, 29.32, -30.85, -0.00, -0.00, -0.00, -1.42, 29.89, -29.81, -0.00, -0.00, -0.00
-187.00, 255.00, -138.00, 0.01, 0.00, 0.10, 15.25, 4.06, -5.93, 70.94, -38.10, 0.00, 0.10, 0.01, -0.38, 30.06, -30.23, -0.00, -0.01, 0.00, -1.33, 29.94, -29.81, -0.00, -0.01, 0.00
32.00, 0.00, 164.00, -0.18, 0.05, -0.01, 15.75, 4.11, 28.66, 56.99, -44.24, 0.01, 0.10, 0.01, -2.89, 30.49, -30.49, -0.01, -0.00, -0.00, -1.49, 30.13, -29.82, -0.01, -0.00, -0.00
-243.00, 95.00, -32.00, -0.17, -0.08, -0.08, 15.75, 4.12, 2.21, 63.80, -42.98, 0.00, 0.10, 0.01, 0.72, 29.76, -29.63, -0.00, -0.00, -0.00, -1.27, 29.99, -29.81, 0.00, -0.00, -0.00
-234.00, -137.00, -137.00, 0.18, 0.03, 0.07, 15.50, 4.09, 6.50, 51.91, -59.34, -0.00, 0.10, 0.01, -0.57, 30.74, -29.58, 0.00, -0.00, -0.00, -1.20, 30.26, -29.75, 0.00, -0.00, -0.00
243.00, 65.00, 124.00, 0.00, 0.10, 0.12, 15.63, 4.09, 36.19, 56.58, -42.90, -0.00, 0.10, 0.01, -3.27, 29.28, -30.07, 0.00, -0.00, -0.00, -1.41, 29.91, -29.83, -0.00, -0.00, -0.00
0.00, 163.00, 186.00, -0.07, 0.18, 0.24, 15.75, 4.10, 22.52, 65.83, -36.33, -0.00, 0.10, 0.01, -1.40, 29.77, -30.91, 0.00, -0.00, 0.00, -1.42, 29.84, -29.89, 0.00, -0.00, 0.00
-124.00, 243.00, 255.00, 0.24, -0.17, -0.21, 15.63, 4.07, 15.64, 72.04, -34.00, -0.00, 0.10, 0.01, -0.92, 28.62, -31.02, 0.00, 0.00, -0.00, -1.38, 29.39, -30.01, 0.00, 0.00, 0.00
255.00, -236.00, -255.00, -0.04, -0.10, -0.04, 15.50, 4.02, 31.69, 43.20, -69.73, -0.00, 0.10, 0.01, -2.96, 32.80, -28.17, 0.00, 0.00, -0.00, -1.51, 30.61, -29.71, 0.00, 0.00, -0.00
-81.00, -165.00, -81.00, -0.13, -0.19, 0.06, 15.63, 4.07, 17.70, 49.25, -58.01, -0.00, 0.10, 0.01, -2.54, 32.19, -30.07, 0.00, -0.00, 0.00, -1.62, 31.17, -29.63, -0.00, -0.00, 0.00
-198.00, -251.00, 110.00, 0.15, 0.04, -0.21, 15.63, 4.09, 24.36, 48.03, -61.36, -0.00, 0.10, 0.01, -0.91, 31.29, -27.65, 0.00, -0.00, -0.00, -1.53, 31.24, -29.52, 0.00, -0.00, -0.00
217.00, 80.00, -255.00, -0.07, -0.09, -0.19, 15.38, 4.06, 17.55, 56.90, -50.10, 0.01, 0.10, 0.01, -2.18, 30.46, -29.59, -0.01, -0.00, -0.00, -1.60, 30.96, -29.57, -0.01, -0.00, -0.00
-125.00, -151.00, -252.00, -0.14, -0.19, -0.21, 15.63, 4.06, 7.97, 49.25, -60.17, -0.00, 0.10, 0.01, -1.17, 30.87, -26.95, 0.00, -0.00, -0.00, -1.54, 30.97, -29.44, 0.00, -0.00, -0.00
-208.00, -252.00, -255.00, -0.20, -0.13, 0.15, 15.50, 4.04, 7.10, 46.77, -70.04, 0.00, 0.10, 0.01, -0.86, 31.41, -27.60, -0.00, -0.00, -0.00, -1.46, 31.15, -29.32, -0.00, -0.00, -0.00
-255.00, -199.00, 219.00, -0.05, 0.07, -0.20, 15.88, 4.03, 23.69, 53.08, -58.32, -0.00, 0.10, 0.01, -0.92, 30.65, -28.43, 0.00, -0.00, -0.00, -1.40, 30.98, -29.30, 0.00, -0.00, -0.00
-97.00, 126.00, -255.00, 0.10, 0.12, 0.11, 15.50, 4.06, 0.41, 63.52, -46.24, -0.00, 0.10, 0.01, 1.10, 31.27, -29.38, 0.00, 0.00, 0.00, -1.15, 31.07, -29.26, 0.00, 0.00, 0.00
164.00, 187.00, 176.00, -0.08, 0.21, -0.09, 15.50, 4.08, 30.63, 67.01, -37.11, 0.00, 0.10, 0.01, -1.66, 31.48, -31.64, -0.00, -0.00, -0.00, -1.23, 31.17, -29.36, -0.00, -0.00, 0.00
-138.00, 255.00, -151.00, 0.03, 0.02, 0.10, 15.75, 4.07, -1.62, 70.01, -38.32, 0.00, 0.11, 0.01, 1.67, 30.01, -30.88, -0.00, 0.00, -0.00, -0.95, 30.72, -29.48, -0.00, 0.00, -0.00
65.00, 49.00, 164.00, -0.24, 0.05, -0.22, 15.75, 4.10, 27.57, 58.64, -42.12, -0.00, 0.10, 0.01, -3.88, 29.86, -30.98, 0.00, -0.00, -0.00, -1.25, 30.39, -29.61, -0.00, -0.00, -0.00
-255.00, 95.00, -255.00, -0.15, -0.23, -0.04, 15.50, 4.08, -7.95, 62.26, -49.47, -0.00, 0.10, 0.01, 1.40, 28.35, -28.63, 0.00, 0.00, -0.00, -1.00, 29.67, -29.66, 0.00, 0.00, -0.00
-218.00, -255.00, -80.00, 0.21, -0.21, 0.23, 15.38, 4.05, 14.43, 47.28, -65.46, -0.00, 0.10, 0.01, -1.02, 31.82, -28.49, 0.00, -0.00, -0.00, -0.99, 30.44, -29.47, 0.00, -0.00, -0.00
255.00, -255.00, 255.00, -0.23, -0.06, -0.11, 15.75, 4.03, 53.92, 45.57, -61.69, 0.00, 0.10, 0.01, -4.41, 31.88, -27.31, -0.00, -0.01, -0.00, -1.30, 30.98, -29.28, -0.00, -0.01, -0.00
-255.00, -111.00, -177.00, 0.09, -0.13, 0.06, 15.38, 4.04, 3.48, 54.08, -58.51, 0.00, 0.11, 0.01, 0.27, 31.04, -29.08, -0.00, 0.00, 0.00, -1.15, 31.00, -29.26, 0.00, 0.00, 0.00
152.00, -199.00, 111.00, -0.04, -0.09, 0.05, 15.63, 4.08, 41.58, 46.81, -58.18, 0.00, 0.10, 0.01, -2.86, 32.25, -29.85, -0.00, -0.01, -0.00, -1.32, 31.43, -29.22, -0.00, -0.01, -0.00
-80.00, -151.00, 96.00, 0.17, 0.01, -0.07, 15.50, 4.11, 25.87, 51.32, -52.94, 0.00, 0.10, 0.01, -2.13, 32.19, -28.66, -0.00, -0.01, -0.00, -1.40, 31.71, -29.14, -0.00, -0.01, -0.00
234.00, 32.00, -124.00, 0.19, 0.23, -0.17, 15.63, 4.11, 25.45, 54.98, -47.66, 0.00, 0.10, 0.01, -3.40, 31.37, -29.16, -0.00, -0.00, -0.00, -1.60, 31.59, -29.18, -0.00, -0.00, -0.00
250.00, 255.00, -234.00, -0.04, 0.22, -0.08, 15.63, 4.05, 14.63, 65.55, -42.14, -0.00, 0.11, 0.01, -1.39, 29.95, -29.89, 0.00, 0.00, 0.00, -1.59, 31.00, -29.31, 0.00, 0.00, 0.00
-81.00, 255.00, -139.00, 0.22, 0.13, 0.23, 15.50, 4.05, -0.13, 69.04, -35.93, -0.00, 0.10, 0.01, -1.05, 30.07, -29.34, 0.00, -0.00, -0.00, -1.53, 30.67, -29.36, 0.00, -0.00, -0.00
255.00, 199.00, 255.00, -0.23, -0.05, 0.19, 15.75, 4.04, 37.36, 67.09, -38.41, 0.00, 0.10, 0.01, -3.10, 30.41, -31.56, -0.00, -0.00, -0.00, -1.71, 30.54, -29.49, -0.00, -0.00, -0.00
-255.00, -96.00, 252.00, 0.08, 0.04, 0.23, 15.63, 4.03, 19.56, 57.34, -52.03, 0.00, 0.10, 0.01, -2.40, 29.32, -29.36, -0.00, -0.00, -0.00, -1.78, 30.11, -29.56, -0.00, -0.00, -0.00
139.00, 81.00, 255.00, 0.22, 0.11, -0.10, 15.50, 4.06, 36.47, 61.93, -40.63, -0.01, 0.10, 0.01, -1.94, 30.48, -30.32, 0.01, 0.00, 0.00, -1.80, 30.23, -29.58, 0.01, 0.00, 0.00
255.00, 176.00, -164.00, 0.23, -0.22, -0.15, 15.63, 4.06, 21.70, 61.91, -44.01, 0.00, 0.11, 0.01, -0.63, 30.77, -30.92, -0.00, 0.00, -0.00, -1.69, 30.40, -29.60, -0.00, 0.00, -0.00
255.00, -255.00, -218.00, 0.21, 0.03, -0.22, 15.50, 4.03, 34.45, 41.63, -69.15, 0.00, 0.10, 0.01, -2.60, 32.22, -27.48, -0.00, -0.00, -0.00, -1.76, 31.06, -29.38, -0.00, -0.00, -0.00
255.00, 65.00, -255.00, -0.03, -0.11, 0.16, 15.50, 4.03, 21.00, 54.33, -49.97, -0.00, 0.10, 0.01, -1.55, 29.09, -27.98, 0.00, 0.00, -0.00, -1.73, 30.39, -29.43, 0.00, 0.00, -0.00
-65.00, -177.00, 229.00, -0.07, 0.12, -0.01, 15.50, 4.07, 31.58, 51.27, -55.12, 0.00, 0.10, 0.01, -4.26, 31.39, -29.32, -0.00, -0.00, -0.00, -1.98, 30.75, -29.37, -0.00, -0.00, -0.00
-125.00, 187.00, -32.00, 0.12, -0.07, -0.23, 15.38, 4.10, 6.12, 66.08, -37.59, 0.00, 0.10, 0.01, 0.80, 29.57, -30.41, -0.00, -0.00, -0.00, -1.72, 30.30, -29.47, -0.00, -0.00, -0.00
186.00, -124.00, -255.00, 0.16, 0.03, 0.07, 15.50, 4.09, 23.63, 48.63, -61.06, -0.00, 0.11, 0.01, -2.80, 32.47, -28.94, 0.00, 0.00, 0.00, -1.82, 31.07, -29.31, 0.00, 0.00, 0.00
227.00, 65.00, 124.00, 0.12, -0.07, 0.01, 15.50, 4.08, 35.31, 57.97, -42.63, 0.00, 0.10, 0.01, -3.19, 30.52, -30.10, -0.00, -0.00, -0.00, -1.96, 30.87, -29.39, -0.00, -0.00, -0.00
187.00, -124.00, 32.00, 0.23, -0.06, 0.14, 15.50, 4.11, 37.94, 49.01, -53.26, -0.00, 0.10, 0.01, -2.07, 32.11, -29.23, 0.00, -0.01, -0.00, -1.97, 31.31, -29.30, 0.00, -0.01, -0.00
255.00, -110.00, 207.00, 0.05, 0.01, 0.25, 15.50, 4.08, 48.93, 50.07, -51.62, 0.00, 0.10, 0.01, -2.30, 30.66, -28.20, -0.00, -0.00, -0.00, -2.00, 31.10, -29.29, -0.01, -0.00, -0.00
96.00, 32.00, 255.00, -0.03, 0.15, -0.20, 15.38, 4.08, 35.81, 59.44, -43.01, -0.00, 0.10, 0.01, -2.16, 30.19, -30.57, 0.00, -0.00, 0.00, -2.03, 30.75, -29.40, 0.00, -0.00, 0.00
-65.00, 218.00, -255.00, 0.06, -0.23, 0.08, 15.50, 4.08, -3.58, 66.28, -41.84, 0.00, 0.10, 0.01, -1.17, 29.34, -29.45, -0.00, -0.01, -0.00, -1.95, 30.25, -29.48, -0.00, -0.01, -0.00
110.00, -255.00, 138.00, -0.01, 0.15, -0.05, 15.50, 4.07, 43.69, 44.65, -60.25, -0.00, 0.10, 0.01, -1.48, 31.83, -27.97, 0.00, 0.00, -0.00, -1.89, 30.83, -29.30, 0.00, 0.00, -0.00
-32.00, 218.00, -96.00, -0.14, 0.16, 0.18, 15.50, 4.10, 6.62, 67.80, -36.25, -0.00, 0.10, 0.01, -0.23, 31.23, -29.76, 0.00, -0.00, -0.00, -1.73, 30.95, -29.29, 0.00, -0.00, 0.00
-207.00, 226.00, 243.00, -0.12, 0.23, -0.20, 15.63, 4.06, 11.06, 73.21, -35.95, 0.00, 0.11, 0.01, -0.53, 29.43, -31.02, -0.00, 0.00, -0.00, -1.62, 30.38, -29.46, 0.00, 0.00, -0.00
-187.00, 255.00, -255.00, 0.10, -0.07, 0.23, 15.63, 4.03, -9.95, 70.51, -42.46, 0.00, 0.11, 0.01, 0.57, 29.71, -30.13, -0.00, 0.00, -0.00, -1.42, 30.12, -29.51, -0.00, 0.00, -0.00
165.00, -126.00, 255.00, -0.07, -0.08, 0.12, 15.75, 4.05, 43.88, 51.70, -53.68, -0.00, 0.10, 0.01, -4.52, 31.12, -30.88, 0.00, 0.00, -0.00, -1.73, 30.45, -29.52, -0.00, -0.00, -0.00
-125.00, -139.00, 188.00, -0.09, 0.23, -0.16, 15.38, 4.08, 26.59, 53.20, -53.95, 0.00, 0.10, 0.01, -2.34, 31.36, -30.38, -0.00, -0.00, 0.00, -1.80, 30.77, -29.51, -0.00, -0.00, 0.00
-151.00, 255.00, -227.00, -0.07, -0.09, -0.13, 15.63, 4.07, -5.77, 69.83, -41.19, -0.00, 0.10, 0.01, 1.76, 29.58, -30.68, 0.00, -0.00, -0.00, -1.46, 30.31, -29.61, 0.00, 0.00, -0.00
-125.00, -151.00, -198.00, 0.16, -0.04, -0.24, 15.63, 4.07, 10.27, 49.78, -61.43, 0.01, 0.10, 0.01, -1.32, 31.52, -30.45, -0.01, 0.00, -0.00, -1.45, 30.72, -29.57, -0.01, 0.00, -0.00
227.00, -81.00, -255.00, -0.24, 0.10, 0.11, 15.63, 4.07, 24.42, 49.69, -58.70, 0.01, 0.10, 0.01, -2.60, 31.75, -28.81, -0.01, -0.00, -0.00, -1.56, 31.10, -29.47, -0.01, -0.00, -0.00
-255.00, 164.00, 176.00, 0.11, 0.03, 0.06, 15.63, 4.06, 7.31, 68.15, -38.98, 0.00, 0.11, 0.01, -0.66, 27.87, -30.49, -0.00, 0.00, -0.00, -1.48, 29.93, -29.70, 0.00, 0.00, -0.00
176.00, 65.00, 111.00, 0.07, 0.05, -0.01, 15.88, 4.09, 31.70, 58.32, -40.82, 0.00, 0.10, 0.01, -3.22, 30.51, -29.23, -0.00, -0.00, -0.00, -1.65, 30.14, -29.65, -0.00, -0.00, -0.00
124.00, 95.00, -32.00, 0.18, -0.12, 0.09, 15.63, 4.13, 22.07, 59.30, -40.81, 0.00, 0.10, 0.00, -1.93, 30.76, -29.68, -0.00, -0.00, -0.01, -1.68, 30.36, -29.61, -0.00, -0.00, -0.01
242.00, -185.00, 150.00, 0.14, 0.14, -0.06, 15.50, 4.10, 49.36, 46.93, -56.87, -0.00, 0.10, 0.01, -1.75, 32.06, -28.16, 0.00, -0.00, -0.00, -1.67, 30.98, -29.43, 0.00, -0.00, -0.00
207.00, 207.00, -110.00, 0.01, -0.18, -0.08, 15.38, 4.07, 18.78, 62.91, -39.14, 0.00, 0.10, 0.01, -2.12, 29.46, -30.06, -0.00, -0.00, -0.00, -1.72, 30.43, -29.56, -0.01, -0.00, -0.00
32.00, -244.00, -138.00, 0.04, -0.20, 0.07, 15.50, 4.08, 24.64, 42.75, -64.22, -0.00, 0.10, 0.01, -2.80, 30.97, -28.67, 0.00, -0.00, -0.00, -1.82, 30.64, -29.48, 0.00, -0.00, -0.00
80.00, -255.00, 124.00, 0.11, 0.13, -0.16, 15.50, 4.09, 41.39, 43.93, -60.77, 0.00, 0.10, 0.01, -1.52, 31.14, -28.49, -0.00, -0.00, -0.00, -1.79, 30.83, -29.40, -0.00, -0.00, -0.00
175.00, 197.00, -227.00, 0.20, -0.11, 0.18, 15.50, 4.07, 13.01, 63.75, -43.47, 0.00, 0.10, 0.01, -0.96, 30.58, -30.44, -0.00, -0.00, -0.00, -1.71, 30.72, -29.46, -0.00, 0.00, -0.00
255.00, -176.00, 244.00, -0.15, -0.24, -0.12, 15.38, 4.04, 50.67, 47.00, -56.96, 0.00, 0.10, 0.01, -4.40, 29.98, -28.83, -0.00, 0.00, -0.00, -1.97, 30.47, -29.49, -0.01, -0.00, -0.00
-219.00, -255.00, -188.00, 0.25, -0.01, -0.17, 15.63, 4.03, 9.62, 46.76, -67.42, 0.00, 0.10, 0.01, -0.85, 31.35, -27.44, -0.00, -0.01, -0.00, -1.84, 30.80, -29.32, -0.00, -0.01, -0.00
255.00, -32.00, -237.00, -0.16, -0.07, 0.04, 15.75, 4.05, 25.80, 51.20, -55.96, -0.00, 0.10, 0.01, -1.57, 31.05, -29.47, 0.00, -0.01, -0.00, -1.82, 30.89, -29.31, 0.00, -0.01, 0.00
-228.00, -125.00, 81.00, 0.15, 0.20, 0.22, 15.38, 4.08, 14.03, 54.19, -54.41, -0.00, 0.10, 0.01, -3.12, 31.11, -29.86, 0.00, -0.00, -0.00, -1.96, 30.96, -29.33, 0.00, -0.00, -0.00
218.00, 255.00, 255.00, 0.17, 0.12, 0.06, 15.50, 4.05, 33.40, 69.09, -34.98, -0.00, 0.10, 0.00, -3.00, 28.91, -31.30, 0.00, -0.00, -0.00, -2.08, 30.19, -29.55, 0.00, -0.00, -0.01
237.00, 188.00, 111.00, 0.04, 0.10, -0.04, 15.50, 4.04, 31.31, 63.42, -38.02, 0.00, 0.10, 0.01, -2.16, 29.65, -30.97, -0.00, -0.00, -0.00, -2.10, 29.98, -29.65, -0.00, -0.00, -0.00
81.00, 164.00, -81.00, -0.14, 0.11, 0.11, 15.63, 4.10, 15.73, 62.41, -37.68, 0.01, 0.10, 0.01, -0.63, 29.96, -29.10, -0.01, -0.00, -0.00, -1.96, 29.97, -29.61, -0.00, -0.00, -0.00
-207.00, 175.00, 175.00, -0.05, 0.21, 0.13, 15.50, 4.09, 10.27, 67.87, -36.63, -0.00, 0.10, 0.01, -0.06, 28.04, -29.63, 0.00, -0.00, -0.00, -1.78, 29.28, -29.71, 0.00, -0.00, -0.00
-95.00, 255.00, 197.00, 0.02, -0.19, 0.07, 15.50, 4.07, 12.82, 71.59, -32.14, -0.00, 0.10, 0.01, -2.55, 29.15, -30.07, 0.00, -0.01, 0.00, -1.86, 29.23, -29.74, -0.00, -0.01, -0.00
49.00, -252.00, 125.00, -0.08, -0.14, -0.14, 15.88, 4.08, 39.56, 44.67, -59.60, 0.00, 0.10, 0.01, -1.35, 31.36, -27.86, -0.00, -0.00, 0.00, -1.79, 30.00, -29.51, -0.00, -0.00, 0.00
-138.00, -208.00, -208.00, 0.07, 0.24, 0.19, 15.63, 4.08, 10.84, 47.05, -64.25, 0.00, 0.10, 0.01, -1.72, 31.30, -28.28, -0.00, 0.00, -0.00, -1.77, 30.47, -29.37, -0.00, 0.00, -0.00
124.00, 255.00, 251.00, 0.05, 0.16, 0.18, 15.50, 4.05, 29.93, 70.15, -33.28, 0.00, 0.10, 0.01, -0.83, 29.16, -31.01, -0.00, -0.00, -0.00, -1.69, 29.98, -29.52, 0.00, -0.00, -0.00
96.00, 228.00, 245.00, 0.07, 0.25, 0.03, 15.63, 4.05, 27.77, 68.61, -34.76, 0.00, 0.10, 0.01, -1.99, 29.00, -31.62, -0.00, -0.00, -0.00, -1.74, 29.59, -29.67, -0.00, -0.00, -0.00
125.00, 255.00, 65.00, 0.15, 0.18, 0.07, 15.63, 4.07, 22.23, 68.40, -33.37, 0.00, 0.10, 0.01, -0.27, 30.28, -30.76, -0.00, -0.01, -0.00, -1.61, 29.82, -29.67, -0.00, -0.01, -0.00
218.00, 244.00, 125.00, 0.18, 0.23, 0.03, 15.50, 4.07, 29.51, 67.80, -34.95, 0.00, 0.11, 0.01, -1.58, 30.46, -30.86, -0.00, 0.00, -0.00, -1.61, 30.02, -29.69, -0.00, 0.00, -0.00
244.00, 255.00, 65.00, -0.16, 0.17, -0.03, 15.75, 4.05, 27.19, 66.66, -36.09, 0.00, 0.10, 0.01, -2.25, 29.77, -31.49, -0.00, -0.00, -0.00, -1.69, 29.91, -29.79, -0.00, -0.00, -0.00
-228.00, 236.00, -65.00, -0.14, 0.18, 0.16, 15.38, 4.06, -3.17, 70.43, -37.26, 0.00, 0.11, 0.01, 0.83, 29.46, -29.80, -0.00, 0.00, -0.00, -1.45, 29.74, -29.79, -0.00, 0.00, -0.00
-209.00, 244.00, 228.00, -0.07, 0.25, -0.16, 15.75, 4.04, 10.13, 73.55, -34.76, -0.00, 0.11, 0.01, -0.12, 29.13, -30.57, -0.00, 0.00, -0.00, -1.33, 29.50, -29.86, 0.00, 0.00, 0.00
-125.00, 255.00, -228.00, -0.05, -0.14, -0.06, 15.38, 4.04, -4.68, 69.51, -40.02, 0.00, 0.10, 0.01, 1.06, 29.85, -29.81, -0.00, 0.00, 0.00, -1.09, 29.62, -29.81, 0.00, 0.00, 0.00
-96.00, -209.00, -111.00, -0.18, -0.16, 0.13, 15.63, 4.08, 21.05, 46.17, -61.27, -0.00, 0.11, 0.01, 1.40, 31.09, -28.99, 0.00, 0.00, -0.00, -0.84, 30.13, -29.66, 0.00, 0.00, -0.00
-244.00, -227.00, 198.00, 0.09, -0.06, 0.13, 15.88, 4.06, 23.82, 51.02, -60.52, -0.00, 0.10, 0.01, -1.66, 30.63, -28.37, 0.00, -0.00, -0.00, -0.91, 30.33, -29.57, 0.00, -0.00, -0.00
151.00, -111.00, 198.00, 0.08, -0.18, -0.12, 15.75, 4.07, 39.94, 51.80, -52.69, 0.00, 0.10, 0.01, -4.67, 31.50, -31.22, -0.00, -0.00, -0.00, -1.31, 30.72, -29.59, -0.00, -0.00, -0.00
138.00, -244.00, -187.00, 0.04, -0.01, 0.10, 15.75, 4.07, 29.41, 42.56, -66.19, -0.00, 0.10, 0.00, -2.02, 31.76, -28.36, 0.00, -0.00, -0.01, -1.37, 31.11, -29.47, -0.00, -0.00, -0.01
81.00, -32.00, 164.00, 0.04, -0.09, 0.14, 15.50, 4.10, 32.93, 54.78, -45.07, -0.00, 0.10, 0.01, -2.92, 30.46, -29.20, 0.00, -0.00, 0.00, -1.52, 30.89, -29.50, 0.00, -0.00, -0.00
80.00, -150.00, 207.00, -0.19, -0.22, 0.19, 15.25, 4.12, 40.25, 51.01, -53.26, 0.00, 0.10, 0.01, -2.55, 31.95, -29.43, -0.00, -0.01, 0.00, -1.62, 31.27, -29.44, -0.00, -0.01, 0.00
-250.00, -255.00, 250.00, -0.16, -0.09, -0.23, 15.63, 4.04, 27.13, 50.53, -62.47, -0.00, 0.10, 0.01, -1.27, 30.20, -27.82, 0.00, -0.01, -0.00, -1.58, 30.92, -29.42, 0.00, -0.01, -0.00
-228.00, -152.00, -255.00, -0.23, -0.08, -0.18, 15.63, 4.02, 3.41, 51.23, -62.79, -0.00, 0.10, 0.01, 0.37, 30.70, -28.05, 0.00, 0.00, -0.00, -1.38, 30.85, -29.35, 0.00, 0.00, -0.00
-255.00, -139.00, -246.00, -0.16, -0.22, 0.06, 15.63, 4.04, 2.16, 52.15, -61.77, -0.00, 0.10, 0.01, 0.99, 30.35, -27.73, 0.00, -0.00, -0.00, -1.14, 30.69, -29.27, 0.00, -0.00, -0.00
-228.00, -255.00, 111.00, -0.11, -0.11, 0.12, 15.50, 4.04, 23.21, 48.07, -62.60, -0.00, 0.10, 0.01, -0.39, 30.69, -28.26, 0.00, -0.01, -0.00, -1.06, 30.70, -29.22, 0.00, -0.01, -0.00
-176.00, -176.00, 188.00, 0.10, 0.18, 0.04, 15.75, 4.06, 25.69, 51.58, -54.75, 0.00, 0.10, 0.01, -1.54, 30.53, -27.90, -0.00, -0.01, -0.00, -1.09, 30.66, -29.17, -0.00, -0.01, -0.00
164.00, 244.00, 81.00, -0.14, -0.04, 0.16, 15.38, 4.08, 24.74, 66.76, -34.39, 0.00, 0.10, 0.01, -1.19, 29.43, -30.95, -0.00, -0.00, -0.00, -1.12, 30.20, -29.33, -0.00, -0.00, 0.00
-208.00, -80.00, 227.00, 0.02, 0.02, -0.21, 15.50, 4.08, 20.78, 57.06, -50.80, -0.00, 0.11, 0.01, -2.32, 29.89, -30.03, 0.00, 0.00, -0.00, -1.25, 30.08, -29.38, -0.00, 0.00, -0.00
48.00, 48.00, -255.00, -0.03, -0.05, -0.05, 15.75, 4.09, 10.04, 56.37, -49.74, -0.00, 0.10, 0.01, -0.93, 30.01, -29.48, 0.00, -0.00, -0.00, -1.22, 30.05, -29.39, 0.00, -0.00, -0.00
-65.00, -95.00, -95.00, -0.10, 0.25, -0.21, 15.88, 4.13, 16.97, 51.23, -53.14, 0.01, 0.11, 0.01, -0.62, 31.06, -29.82, -0.01, 0.00, -0.00, -1.16, 30.40, -29.34, -0.00, 0.00, -0.00
-162.00, 255.00, -255.00, 0.20, 0.14, -0.14, 15.75, 4.08, -7.44, 69.50, -41.39, 0.00, 0.10, 0.01, 2.16, 28.90, -29.53, -0.00, -0.00, -0.00, -0.84, 29.85, -29.41, 0.00, -0.00, -0.00
255.00, 208.00, -208.00, -0.24, -0.23, 0.15, 15.75, 4.03, 19.06, 63.20, -43.91, -0.00, 0.10, 0.01, -0.09, 30.35, -30.61, 0.00, 0.00, -0.00, -0.78, 30.01, -29.43, 0.00, 0.00, -0.00
-255.00, -255.00, 219.00, -0.13, 0.19, -0.11, 15.75, 4.02, 25.20, 50.61, -62.83, 0.00, 0.10, 0.01, -1.50, 30.74, -28.33, -0.00, -0.00, -0.00, -0.84, 30.28, -29.34, -0.00, -0.00, -0.00
-199.00, 253.00, -177.00, -0.17, -0.17, -0.19, 15.13, 4.03, -5.89, 70.18, -40.34, -0.00, 0.10, 0.01, 1.80, 29.35, -30.87, 0.00, -0.00, -0.00, -0.60, 29.91, -29.44, 0.00, -0.00, -0.00
-237.00, -237.00, -253.00, 0.16, -0.07, 0.16, 15.88, 4.03, 5.77, 47.31, -69.41, 0.00, 0.11, 0.01, -0.04, 30.53, -27.96, -0.00, 0.00, -0.00, -0.53, 30.14, -29.33, -0.00, 0.00, -0.00
229.00, -126.00, 229.00, -0.02, 0.20, 0.01, 15.63, 4.04, 47.41, 51.68, -53.64, 0.00, 0.10, 0.01, -3.46, 32.27, -29.77, -0.00, 0.00, 0.00, -0.83, 30.89, -29.23, -0.00, 0.00, -0.00
-49.00, 255.00, 32.00, 0.17, -0.08, -0.14, 15.63, 4.08, 9.32, 69.99, -32.52, -0.00, 0.10, 0.01, -1.25, 30.37, -29.96, 0.00, -0.00, -0.00, -0.88, 30.70, -29.30, 0.00, -0.00, -0.00
235.00, -138.00, -208.00, 0.07, 0.25, -0.23, 15.50, 4.08, 30.09, 45.73, -59.34, -0.00, 0.10, 0.01, -1.94, 30.84, -27.38, 0.00, -0.00, -0.00, -0.96, 30.78, -29.20, -0.00, -0.00, -0.00
124.00, 255.00, -255.00, -0.24, -0.14, -0.13, 15.63, 4.04, 7.78, 65.84, -41.48, 0.00, 0.10, 0.01, 0.02, 28.98, -30.33, -0.00, -0.00, -0.00, -0.88, 30.12, -29.35, -0.00, -0.00, -0.00
-255.00, -209.00, -199.00, -0.23, -0.14, 0.23, 15.50, 4.04, 5.92, 47.84, -65.16, 0.00, 0.10, 0.01, -0.14, 29.45, -27.78, -0.00, -0.00, -0.00, -0.80, 29.90, -29.31, -0.00, -0.00, -0.00
-255.00, -209.00, 255.00, -0.23, -0.13, -0.13, 15.63, 4.02, 25.40, 52.24, -58.87, -0.00, 0.10, 0.01, -1.15, 29.55, -28.06, 0.00, -0.00, -0.00, -0.82, 29.80, -29.27, 0.00, -0.00, -0.00
-255.00, -199.00, -199.00, 0.18, -0.22, 0.18, 15.25, 4.03, 5.47, 48.92, -65.68, 0.00, 0.10, 0.01, -0.28, 30.06, -29.12, -0.00, -0.00, 0.00, -0.77, 29.89, -29.25, -0.00, -0.00, 0.00
245.00, -255.00, 245.00, -0.08, -0.04, -0.10, 15.38, 4.02, 53.26, 45.03, -63.30, -0.00, 0.10, 0.01, -4.02, 31.45, -29.14, 0.00, -0.00, -0.00, -1.09, 30.45, -29.16, -0.00, -0.00, -0.00
-139.00, -81.00, -165.00, -0.13, 0.07, -0.19, 15.63, 4.07, 10.70, 52.86, -55.26, 0.00, 0.10, 0.01, 1.31, 30.90, -30.13, -0.00, -0.01, -0.00, -0.86, 30.58, -29.16, 0.00, -0.01, 0.00
-198.00, 125.00, -252.00, 0.20, 0.20, -0.23, 15.50, 4.08, -5.69, 62.12, -46.73, -0.00, 0.10, 0.01, 1.20, 27.99, -28.58, 0.00, -0.01, -0.00, -0.66, 29.67, -29.26, 0.00, -0.00, -0.00
255.00, 255.00, -255.00, 0.13, -0.13, 0.17, 16.00, 4.03, 13.86, 64.64, -42.62, -0.00, 0.10, 0.01, -1.54, 29.11, -29.35, 0.00, -0.00, -0.00, -0.75, 29.47, -29.30, 0.00, -0.00, -0.00
199.00, -199.00, 237.00, 0.20, -0.10, -0.05, 15.88, 4.02, 50.12, 47.85, -56.30, 0.00, 0.10, 0.01, -2.06, 31.38, -27.77, -0.00, -0.00, 0.00, -0.86, 30.16, -29.12, -0.00, -0.00, 0.00
255.00, -165.00, -97.00, 0.03, 0.01, 0.03, 15.50, 4.06, 36.47, 45.62, -58.74, 0.00, 0.10, 0.01, -2.88, 32.08, -28.10, -0.00, -0.00, -0.00, -1.05, 30.85, -28.96, -0.00, -0.00, -0.00
65.00, 32.00, 65.00, -0.24, 0.12, -0.10, 15.38, 4.12, 26.06, 57.16, -42.40, 0.00, 0.10, 0.01, -1.61, 30.68, -29.73, -0.00, -0.01, -0.00, -1.11, 30.78, -29.01, -0.00, -0.01, -0.00
-255.00, 185.00, -162.00, 0.07, -0.02, -0.02, 15.75, 4.10, -7.29, 68.62, -43.10, 0.00, 0.10, 0.01, 1.50, 29.78, -30.30, -0.00, -0.00, 0.00, -0.87, 30.39, -29.11, 0.00, -0.00, 0.00
124.00, -48.00, -48.00, -0.05, 0.23, -0.24, 15.63, 4.11, 26.85, 50.95, -50.19, 0.00, 0.10, 0.01, -2.39, 30.15, -30.80, -0.00, -0.00, -0.00, -1.03, 30.28, -29.21, -0.00, -0.00, -0.00
-95.00, 255.00, -255.00, -0.08, 0.21, -0.02, 15.38, 4.09, -3.68, 68.59, -41.14, -0.00, 0.10, 0.01, 1.96, 29.09, -30.08, 0.00, -0.01, -0.00, -0.75, 29.83, -29.29, 0.00, -0.01, 0.00
-138.00, 255.00, -48.00, 0.20, -0.11, 0.07, 15.75, 4.07, 2.59, 70.34, -35.30, -0.00, 0.10, 0.01, 1.03, 30.05, -30.51, 0.00, -0.00, 0.00, -0.59, 29.88, -29.32, 0.00, -0.00, 0.00
255.00, -176.00, 125.00, -0.24, 0.10, -0.20, 15.63, 4.07, 45.67, 46.51, -58.16, 0.00, 0.11, 0.01, -4.45, 31.64, -29.89, -0.00, 0.00, 0.00, -0.98, 30.50, -29.26, -0.01, 0.00, -0.00
-255.00, 164.00, -255.00, 0.04, -0.07, -0.22, 15.50, 4.04, -9.37, 64.83, -45.81, 0.00, 0.10, 0.01, 2.26, 27.31, -28.28, -0.00, -0.00, -0.00, -0.67, 29.37, -29.35, -0.00, -0.00, -0.00
81.00, -125.00, -255.00, 0.06, -0.01, 0.02, 15.63, 4.06, 19.32, 48.38, -59.70, 0.00, 0.10, 0.01, -0.93, 31.21, -28.87, -0.00, -0.00, -0.00, -0.69, 30.03, -29.22, -0.00, -0.00, -0.00
111.00, -32.00, 49.00, -0.08, 0.01, -0.24, 15.50, 4.12, 31.99, 53.19, -45.07, 0.00, 0.10, 0.01, -0.42, 30.70, -28.25, -0.00, 0.00, -0.00, -0.66, 30.28, -29.13, -0.00, 0.00, -0.00
-137.00, 32.00, -255.00, 0.13, 0.12, 0.23, 15.63, 4.12, -1.30, 58.01, -50.47, 0.00, 0.10, 0.01, -1.54, 30.06, -28.30, -0.00, -0.01, -0.00, -0.73, 30.22, -29.10, -0.00, -0.01, -0.00
196.00, 185.00, 255.00, 0.19, -0.20, 0.20, 15.63, 4.06, 35.43, 65.83, -36.93, 0.00, 0.10, 0.01, -2.24, 29.24, -30.72, -0.00, -0.00, -0.00, -0.90, 29.85, -29.24, -0.00, -0.00, -0.00
252.00, -255.00, 255.00, 0.25, 0.24, 0.01, 15.63, 4.02, 54.43, 44.55, -62.38, -0.00, 0.10, 0.01, -3.61, 30.80, -28.11, 0.00, -0.00, -0.00, -1.15, 30.20, -29.14, -0.00, -0.00, -0.00
255.00, 255.00, 32.00, -0.04, 0.20, -0.14, 15.88, 4.03, 26.05, 66.97, -36.01, 0.00, 0.11, 0.01, -2.45, 30.65, -30.73, -0.00, 0.00, -0.00, -1.29, 30.34, -29.20, -0.00, 0.00, -0.00
-81.00, 255.00, -210.00, -0.18, 0.08, -0.13, 15.63, 4.05, -1.20, 69.07, -39.08, -0.00, 0.10, 0.01, 1.19, 30.07, -30.02, 0.00, -0.00, -0.00, -1.05, 30.22, -29.23, 0.00, -0.00, -0.00
-245.00, 139.00, -198.00, 0.23, 0.19, -0.15, 15.75, 4.06, -5.74, 64.86, -45.69, -0.00, 0.10, 0.01, 1.89, 29.01, -29.67, 0.00, 0.00, -0.00, -0.77, 29.77, -29.30, 0.00, 0.00, -0.00
255.00, 252.00, -218.00, 0.08, 0.08, 0.22, 15.75, 4.03, 16.85, 65.95, -41.90, 0.01, 0.10, 0.01, -0.32, 30.67, -30.06, -0.01, -0.00, -0.00, -0.74, 30.07, -29.28, -0.00, -0.00, -0.00
139.00, 139.00, 255.00, 0.01, 0.16, -0.16, 15.75, 4.04, 34.05, 63.23, -37.47, -0.00, 0.10, 0.01, -1.92, 28.69, -29.97, 0.00, -0.01, -0.00, -0.86, 29.57, -29.39, -0.00, -0.01, -0.00
32.00, 228.00, -228.00, 0.04, -0.16, -0.04, 15.75, 4.07, 5.03, 65.45, -40.24, 0.00, 0.11, 0.01, 0.68, 29.19, -29.74, -0.00, 0.00, 0.00, -0.71, 29.43, -29.42, -0.00, 0.00, 0.00
81.00, -227.00, -81.00, 0.24, -0.13, 0.18, 15.75, 4.09, 29.96, 43.76, -61.78, -0.00, 0.10, 0.01, -2.44, 31.53, -29.06, 0.00, 0.00, -0.00, -0.88, 30.18, -29.28, -0.00, 0.00, -0.00
255.00, -197.00, 243.00, -0.20, -0.12, -0.23, 15.63, 4.06, 52.60, 48.20, -58.32, -0.01, 0.11, 0.01, -3.45, 32.23, -28.54, 0.01, 0.00, -0.00, -1.13, 30.91, -29.13, 0.01, 0.00, -0.00
-255.00, -187.00, -255.00, 0.23, -0.19, 0.01, 15.75, 4.02, 3.89, 50.50, -65.29, 0.00, 0.10, 0.01, 1.15, 30.91, -27.50, -0.00, -0.00, 0.00, -0.89, 30.92, -29.03, -0.00, -0.00, 0.00
255.00, -253.00, 32.00, 0.24, -0.01, -0.08, 15.75, 4.04, 45.89, 42.49, -63.87, -0.00, 0.10, 0.01, -2.61, 32.15, -28.73, 0.00, -0.00, -0.00, -1.06, 31.36, -28.94, 0.00, -0.00, -0.00
255.00, -32.00, -139.00, 0.20, -0.13, -0.07, 15.63, 4.07, 29.63, 51.07, -52.47, -0.00, 0.10, 0.01, -2.31, 31.01, -29.53, 0.00, -0.00, -0.00, -1.19, 31.23, -29.00, 0.00, -0.00, -0.00
255.00, -198.00, -125.00, -0.18, 0.09, -0.24, 16.00, 4.07, 37.65, 42.87, -61.66, 0.00, 0.10, 0.01, -1.73, 31.00, -27.71, -0.00, -0.00, -0.00, -1.23, 31.17, -28.96, -0.00, -0.00, -0.00
-244.00, 151.00, -255.00, 0.10, -0.11, 0.16, 15.50, 4.04, -8.33, 65.76, -46.93, -0.00, 0.11, 0.01, 2.13, 29.23, -29.04, 0.00, 0.00, 0.00, -0.91, 30.47, -29.04, 0.00, 0.00, 0.00
164.00, -176.00, 228.00, -0.17, -0.09, -0.24, 15.88, 4.05, 44.42, 48.47, -56.68, 0.00, 0.10, 0.01, -4.79, 30.85, -30.36, -0.00, -0.00, -0.00, -1.30, 30.58, -29.09, -0.00, -0.00, -0.00
-236.00, -152.00, -255.00, -0.21, 0.06, 0.19, 15.75, 4.05, 1.55, 51.48, -64.00, 0.00, 0.10, 0.01, -0.80, 30.78, -28.94, -0.00, -0.00, -0.00, -1.25, 30.65, -29.07, -0.00, -0.00, -0.00
-255.00, 111.00, 252.00, -0.02, -0.03, 0.10, 15.63, 4.04, 13.69, 66.75, -41.07, -0.00, 0.10, 0.01, 0.25, 28.00, -29.95, 0.00, -0.00, -0.00, -1.12, 29.69, -29.25, 0.00, -0.00, -0.00
-49.00, -65.00, 165.00, -0.21, -0.16, 0.08, 15.63, 4.09, 27.21, 54.30, -47.57, 0.00, 0.10, 0.01, -2.20, 30.25, -29.70, -0.00, -0.00, 0.00, -1.23, 29.89, -29.24, -0.00, -0.00, 0.00
-255.00, -227.00, 138.00, -0.02, 0.09, -0.13, 16.00, 4.08, 22.03, 50.70, -60.51, 0.00, 0.10, 0.01, -0.07, 31.01, -28.00, -0.00, -0.00, -0.00, -1.11, 30.29, -29.10, -0.00, -0.00, 0.00
-48.00, 151.00, -197.00, -0.07, 0.10, 0.22, 15.63, 4.08, 1.89, 62.12, -42.40, -0.00, 0.11, 0.01, -1.91, 29.24, -29.56, 0.00, 0.00, -0.00, -1.19, 29.92, -29.19, 0.00, 0.00, -0.00
-124.00, 163.00, 255.00, 0.22, -0.02, 0.16, 15.88, 4.08, 16.92, 68.31, -36.95, -0.00, 0.10, 0.01, -2.52, 29.27, -30.55, 0.00, -0.00, -0.00, -1.33, 29.67, -29.30, 0.00, -0.00, -0.00
255.00, -48.00, 227.00, 0.23, 0.15, 0.12, 15.63, 4.06, 47.52, 52.70, -47.66, -0.00, 0.11, 0.01, -1.82, 29.74, -28.28, 0.00, 0.00, -0.00, -1.37, 29.71, -29.25, 0.00, 0.00, -0.00
255.00, 218.00, 187.00, 0.17, -0.12, -0.05, 15.38, 4.04, 35.03, 66.92, -36.55, -0.00, 0.10, 0.01, -1.80, 30.55, -30.59, 0.00, -0.01, -0.00, -1.42, 29.99, -29.26, 0.00, -0.01, -0.00
237.00, -188.00, -96.00, -0.16, 0.23, 0.04, 16.00, 4.06, 37.83, 43.04, -60.46, 0.00, 0.11, 0.01, -1.39, 30.36, -28.62, -0.00, 0.00, 0.00, -1.41, 30.13, -29.21, -0.00, 0.00, 0.00
-228.00, 255.00, 81.00, -0.24, -0.21, 0.15, 16.00, 4.06, 0.95, 72.49, -34.84, 0.00, 0.10, 0.01, -1.06, 29.18, -30.52, -0.00, 0.00, -0.00, -1.39, 29.77, -29.33, -0.00, 0.00, -0.00
-255.00, -255.00, 218.00, 0.19, 0.03, 0.04, 15.75, 4.03, 25.14, 50.34, -63.24, -0.00, 0.11, 0.01, -1.53, 30.49, -28.70, 0.00, 0.00, -0.00, -1.40, 30.03, -29.25, 0.00, 0.00, -0.00
253.00, 65.00, 81.00, 0.22, 0.19, 0.06, 15.38, 4.06, 36.13, 55.77, -42.46, -0.00, 0.10, 0.01, -1.81, 29.20, -29.03, -0.00, -0.00, -0.00, -1.44, 29.74, -29.29, -0.00, -0.00, -0.00
255.00, 252.00, 111.00, -0.15, -0.11, -0.23, 15.63, 4.06, 30.39, 67.13, -36.50, -0.00, 0.10, 0.01, -1.93, 29.94, -31.88, 0.00, -0.00, 0.00, -1.51, 29.77, -29.41, 0.00, -0.00, 0.00
-218.00, -176.00, -255.00, 0.17, 0.13, 0.22, 15.50, 4.04, 5.74, 50.13, -64.73, 0.00, 0.10, 0.01, 1.29, 31.00, -28.33, -0.00, -0.00, -0.00, -1.23, 30.20, -29.25, 0.00, -0.00, -0.00
237.00, 199.00, 255.00, -0.20, 0.17, -0.11, 15.13, 4.03, 37.18, 65.39, -36.71, 0.00, 0.10, 0.01, -2.16, 28.59, -30.21, -0.00, 0.00, 0.00, -1.33, 29.62, -29.39, -0.00, 0.00, -0.00
-255.00, 237.00, -177.00, 0.09, 0.08, 0.09, 15.50, 4.03, -9.75, 69.96, -42.25, -0.00, 0.11, 0.01, 0.77, 28.66, -31.10, 0.00, 0.00, -0.00, -1.14, 29.24, -29.51, 0.00, 0.00, 0.00
152.00, 139.00, 152.00, 0.06, -0.02, 0.06, 15.75, 4.07, 32.94, 63.07, -37.47, -0.00, 0.10, 0.01, 0.66, 30.46, -29.99, 0.00, -0.00, -0.00, -0.96, 29.65, -29.44, 0.00, -0.00, 0.00
111.00, -49.00, 111.00, 0.18, 0.04, -0.14, 15.50, 4.12, 33.28, 52.37, -47.49, -0.00, 0.10, 0.01, -2.75, 30.03, -30.13, -0.00, -0.00, 0.00, -1.14, 29.78, -29.46, -0.00, -0.00, -0.00
242.00, 80.00, -207.00, 0.20, -0.01, -0.21, 15.25, 4.10, 22.92, 57.00, -48.33, 0.00, 0.10, 0.01, -0.50, 30.93, -29.29, -0.00, -0.00, -0.00, -1.08, 30.18, -29.38, -0.00, -0.00, -0.00
255.00, -32.00, -255.00, 0.04, 0.01, -0.20, 16.00, 4.06, 24.93, 50.95, -56.47, 0.00, 0.10, 0.01, -1.63, 30.76, -29.16, -0.00, -0.00, -0.00, -1.13, 30.39, -29.34, -0.00, -0.00, -0.00
81.00, 32.00, -255.00, 0.02, -0.03, 0.14, 16.00, 4.08, 11.33, 54.43, -49.62, -0.00, 0.10, 0.01, -2.31, 29.22, -28.43, 0.00, -0.01, -0.00, -1.24, 30.00, -29.37, 0.00, -0.01, -0.00
48.00, -65.00, 208.00, -0.08, 0.04, -0.20, 15.75, 4.11, 34.46, 54.91, -48.68, -0.00, 0.10, 0.01, -2.83, 31.19, -30.96, 0.00, -0.00, -0.00, -1.41, 30.40, -29.38, -0.00, -0.00, -0.00
-137.00, 80.00, -255.00, 0.15, 0.16, 0.02, 15.75, 4.10, -1.10, 58.84, -48.41, 0.00, 0.10, 0.01, 0.53, 28.31, -28.84, -0.00, -0.00, -0.00, -1.23, 29.66, -29.45, -0.00, -0.00, -0.00
217.00, 226.00, 48.00, -0.13, -0.20, -0.01, 16.13, 4.08, 26.25, 65.02, -36.13, -0.00, 0.10, 0.01, -1.87, 29.51, -30.88, 0.00, -0.00, -0.00, -1.30, 29.59, -29.53, 0.00, -0.00, -0.00
-197.00, -255.00, -32.00, 0.17, 0.16, -0.21, 15.75, 4.07, 18.34, 46.07, -64.72, -0.00, 0.10, 0.01, -0.56, 30.88, -29.09, 0.00, -0.00, 0.00, -1.23, 30.05, -29.43, 0.00, -0.00, 0.00
236.00, 227.00, -255.00, -0.10, 0.19, 0.23, 15.50, 4.04, 14.15, 64.02, -44.33, 0.00, 0.10, 0.01, -1.10, 29.80, -30.22, -0.00, -0.00, 0.00, -1.22, 29.95, -29.48, -0.00, -0.00, 0.00
-165.00, 253.00, 255.00, -0.19, -0.08, 0.13, 15.63, 4.02, 12.06, 72.70, -34.77, 0.00, 0.10, 0.01, -1.81, 28.34, -31.46, -0.00, -0.00, -0.00, -1.30, 29.34, -29.66, -0.00, -0.00, -0.00
-253.00, -139.00, 199.00, -0.20, -0.12, 0.06, 15.63, 4.04, 21.78, 54.55, -54.06, 0.00, 0.10, 0.01, 0.26, 29.71, -28.59, -0.00, -0.00, 0.00, -1.14, 29.48, -29.58, -0.00, -0.00, 0.00
-255.00, -188.00, 111.00, 0.17, 0.06, 0.22, 15.75, 4.05, 19.76, 51.48, -57.78, -0.00, 0.10, 0.01, 0.36, 30.31, -28.39, 0.00, -0.00, -0.00, -0.99, 29.78, -29.46, 0.01, -0.00, -0.00
236.00, 111.00, 255.00, -0.03, 0.03, -0.21, 15.75, 4.05, 41.03, 62.85, -41.52, -0.00, 0.10, 0.01, -1.76, 30.73, -31.11, 0.00, -0.00, 0.00, -1.08, 30.09, -29.49, 0.00, -0.00, 0.00
-65.00, 65.00, -255.00, -0.01, 0.05, -0.10, 15.50, 4.08, 4.37, 57.91, -48.30, -0.00, 0.10, 0.01, 0.83, 29.34, -28.74, 0.00, -0.00, -0.00, -0.89, 29.83, -29.48, 0.00, 0.00, -0.00
-32.00, 96.00, -163.00, 0.07, 0.18, 0.24, 15.75, 4.12, 9.73, 59.41, -43.53, -0.00, 0.10, 0.01, 1.38, 29.69, -29.36, 0.00, -0.00, -0.00, -0.67, 29.77, -29.46, 0.00, -0.00, 0.00
124.00, 242.00, 255.00, -0.11, -0.04, 0.05, 15.63, 4.08, 29.45, 70.02, -34.26, -0.00, 0.11, 0.01, -2.00, 29.49, -31.61, 0.00, 0.00, -0.00, -0.82, 29.64, -29.59, 0.00, 0.00, -0.00
-175.00, -80.00, 96.00, 0.15, 0.23, 0.25, 15.63, 4.09, 19.57, 55.99, -51.15, -0.00, 0.11, 0.01, 0.36, 31.65, -30.70, -0.00, 0.00, -0.00, -0.71, 30.33, -29.50, 0.00, 0.00, -0.00
217.00, 255.00, 255.00, 0.18, 0.21, 0.05, 15.50, 4.06, 33.60, 69.58, -35.44, -0.00, 0.10, 0.01, -2.77, 29.34, -31.86, 0.00, -0.01, -0.00, -0.94, 29.94, -29.68, -0.00, -0.01, -0.00
244.00, 255.00, 96.00, 0.03, -0.12, 0.15, 15.63, 4.03, 30.12, 67.73, -35.21, 0.00, 0.11, 0.01, -0.65, 30.57, -30.80, -0.00, 0.00, -0.00, -0.92, 30.15, -29.69, -0.00, 0.00, -0.00
65.00, -188.00, 219.00, 0.09, 0.01, -0.10, 16.00, 4.07, 43.01, 49.21, -55.88, 0.00, 0.10, 0.01, -0.55, 31.46, -29.53, -0.00, -0.00, -0.00, -0.88, 30.61, -29.60, -0.00, -0.00, -0.00
151.00, 32.00, -164.00, -0.08, -0.14, 0.21, 15.75, 4.11, 21.35, 55.42, -48.33, 0.00, 0.11, 0.01, -0.65, 31.01, -30.07, -0.00, 0.00, -0.00, -0.86, 30.74, -29.60, -0.00, 0.00, -0.00
-137.00, -207.00, 255.00, 0.15, -0.16, -0.17, 16.00, 4.08, 31.72, 51.55, -57.97, 0.00, 0.10, 0.01, -2.11, 31.42, -29.06, -0.00, -0.00, 0.00, -0.98, 30.99, -29.53, -0.00, -0.00, 0.00
218.00, -227.00, -235.00, -0.23, 0.19, -0.08, 15.25, 4.04, 30.52, 41.95, -66.95, 0.00, 0.10, 0.01, -2.65, 30.91, -27.60, -0.00, -0.00, -0.00, -1.13, 31.00, -29.45, -0.01, -0.00, -0.00
-255.00, 253.00, -139.00, -0.09, 0.05, 0.00, 15.50, 4.03, -8.16, 71.35, -40.56, 0.00, 0.10, 0.01, 1.21, 29.13, -31.28, -0.00, -0.00, 0.00, -0.91, 30.29, -29.63, 0.00, 0.00, 0.00
-152.00, 97.00, 0.00, 0.04, 0.08, -0.09, 15.50, 4.09, 9.40, 61.41, -41.19, 0.00, 0.10, 0.01, 0.63, 29.20, -29.98, -0.00, -0.00, -0.00, -0.77, 29.89, -29.70, -0.00, -0.00, -0.00
80.00, 138.00, -151.00, 0.12, -0.09, -0.07, 15.75, 4.13, 14.66, 60.00, -41.16, 0.00, 0.10, 0.01, 0.71, 29.10, -29.42, -0.00, 0.00, 0.00, -0.62, 29.61, -29.72, 0.00, 0.00, 0.00
185.00, -150.00, -123.00, 0.22, 0.20, -0.08, 16.00, 4.10, 30.05, 47.38, -59.85, -0.00, 0.11, 0.01, -3.54, 32.58, -30.90, 0.00, 0.00, -0.00, -0.93, 30.65, -29.59, 0.00, 0.00, -0.00
255.00, 255.00, -137.00, 0.12, 0.14, 0.21, 15.25, 4.06, 19.12, 66.92, -40.09, 0.00, 0.10, 0.01, -1.67, 31.40, -31.22, -0.00, -0.00, -0.00, -1.02, 30.89, -29.63, -0.00, -0.00, -0.00
187.00, 208.00, 255.00, 0.03, 0.25, 0.05, 15.63, 4.04, 34.48, 66.38, -36.01, -0.00, 0.11, 0.01, -1.67, 28.57, -30.86, 0.00, 0.00, -0.00, -1.09, 30.05, -29.83, 0.00, 0.00, -0.00
65.00, 255.00, 96.00, 0.17, 0.02, -0.12, 15.50, 4.07, 20.08, 69.15, -33.00, -0.00, 0.10, 0.01, -0.30, 30.14, -31.05, 0.00, 0.00, -0.00, -1.03, 30.06, -29.88, 0.00, 0.00, -0.00
236.00, 49.00, -187.00, -0.21, -0.05, -0.04, 15.63, 4.09, 22.54, 55.73, -49.62, 0.01, 0.10, 0.01, -2.71, 31.25, -29.97, -0.01, -0.00, 0.00, -1.19, 30.48, -29.81, -0.01, -0.00, 0.00
-255.00, -96.00, -80.00, 0.08, 0.11, -0.18, 15.75, 4.09, 5.86, 52.75, -54.56, 0.00, 0.10, 0.01, -0.87, 28.77, -28.91, -0.00, -0.00, -0.00, -1.16, 29.89, -29.87, -0.00, -0.00, -0.00
138.00, 175.00, -243.00, 0.07, -0.19, 0.07, 15.38, 4.08, 10.71, 62.42, -45.09, 0.00, 0.10, 0.01, -1.14, 30.06, -30.86, -0.00, -0.00, -0.00, -1.16, 29.94, -29.90, -0.00, -0.00, -0.00
124.00, -251.00, 124.00, -0.23, -0.13, -0.06, 15.63, 4.07, 40.91, 44.12, -62.38, 0.00, 0.11, 0.01, -4.34, 31.48, -30.23, -0.00, 0.00, 0.00, -1.48, 30.48, -29.83, -0.01, 0.00, 0.00
-255.00, -198.00, -110.00, 0.19, -0.05, -0.02, 15.38, 4.07, 9.47, 49.58, -63.29, -0.00, 0.10, 0.01, -0.09, 30.66, -29.50, 0.00, -0.00, -0.00, -1.34, 30.55, -29.79, 0.01, -0.00, -0.00
252.00, -96.00, -49.00, 0.07, 0.06, -0.08, 15.25, 4.08, 35.65, 50.00, -56.40, 0.00, 0.11, 0.01, -3.07, 32.90, -31.75, -0.00, 0.00, -0.00, -1.54, 31.35, -29.74, -0.00, 0.00, -0.00
124.00, 110.00, -138.00, 0.10, 0.18, -0.14, 15.75, 4.11, 17.20, 57.95, -43.04, 0.00, 0.10, 0.01, -1.18, 29.04, -29.97, -0.00, -0.00, -0.00, -1.51, 30.53, -29.89, -0.00, -0.00, -0.00
163.00, 243.00, -207.00, -0.22, 0.10, 0.05, 16.00, 4.08, 12.01, 66.06, -40.89, 0.00, 0.10, 0.01, -0.47, 30.18, -30.97, -0.00, -0.00, -0.00, -1.41, 30.38, -29.95, -0.00, -0.00, 0.00
-255.00, 163.00, 96.00, 0.19, -0.01, 0.13, 15.63, 4.06, 5.07, 67.64, -38.99, 0.00, 0.11, 0.01, 0.70, 28.57, -30.17, -0.00, 0.00, -0.00, -1.21, 29.72, -30.05, 0.00, 0.00, -0.00
252.00, -32.00, 198.00, -0.21, -0.09, 0.00, 15.63, 4.07, 44.34, 53.99, -47.62, -0.00, 0.10, 0.01, -2.95, 30.73, -29.30, 0.00, -0.00, 0.00, -1.37, 30.09, -29.97, -0.00, -0.00, -0.00
-255.00, -151.00, 0.00, -0.11, 0.18, -0.03, 15.50, 4.08, 12.80, 52.92, -57.42, 0.00, 0.10, 0.01, 0.03, 31.21, -29.48, -0.00, -0.01, 0.00, -1.23, 30.49, -29.86, -0.00, -0.01, 0.00
-175.00, 244.00, -65.00, -0.05, -0.04, 0.12, 15.88, 4.08, -2.67, 69.91, -36.29, 0.00, 0.10, 0.01, -1.42, 29.51, -30.27, -0.00, -0.00, -0.00, -1.25, 30.14, -29.94, -0.00, -0.00, -0.00
-96.00, -80.00, 187.00, -0.08, -0.18, -0.23, 15.50, 4.10, 26.22, 55.12, -47.94, 0.00, 0.10, 0.01, -2.01, 30.81, -28.72, -0.00, -0.01, 0.00, -1.32, 30.39, -29.84, -0.00, -0.01, -0.00
-137.00, -243.00, -255.00, 0.14, 0.23, -0.24, 15.63, 4.07, 11.30, 46.42, -68.78, 0.00, 0.11, 0.01, -0.51, 32.19, -27.92, -0.00, 0.00, 0.00, -1.22, 31.05, -29.62, -0.00, 0.00, 0.00
208.00, 255.00, -255.00, -0.22, 0.20, -0.02, 15.75, 4.03, 12.41, 66.09, -42.62, 0.00, 0.10, 0.01, -0.29, 30.08, -30.28, -0.00, -0.00, -0.00, -1.14, 30.69, -29.71, -0.00, -0.00, -0.00
-255.00, 255.00, -49.00, 0.17, -0.15, -0.02, 15.50, 4.04, -5.07, 71.57, -38.10, -0.00, 0.10, 0.01, 0.28, 28.90, -31.21, -0.00, -0.00, -0.00, -1.01, 30.02, -29.87, 0.00, -0.00, -0.00
237.00, -219.00, -49.00, 0.14, 0.20, 0.03, 15.50, 4.06, 40.97, 42.39, -61.78, 0.00, 0.10, 0.01, -1.65, 30.99, -28.45, -0.00, -0.00, -0.00, -1.06, 30.38, -29.75, -0.00, -0.00, -0.00
209.00, 255.00, 65.00, -0.15, -0.08, 0.23, 15.88, 4.07, 24.60, 67.29, -35.97, 0.00, 0.10, 0.01, -2.82, 29.97, -32.18, -0.00, -0.01, -0.00, -1.26, 30.19, -29.90, -0.01, -0.01, -0.00
-218.00, -138.00, 255.00, 0.10, 0.13, -0.18, 15.75, 4.05, 23.97, 54.84, -56.04, 0.00, 0.10, 0.01, -2.10, 29.73, -31.16, -0.00, -0.01, -0.00, -1.36, 30.01, -29.99, -0.00, -0.01, -0.00
164.00, 198.00, -245.00, 0.19, -0.21, -0.07, 15.63, 4.05, 11.49, 62.64, -45.10, 0.00, 0.10, 0.01, -1.03, 29.31, -31.51, -0.00, -0.00, -0.00, -1.34, 29.73, -30.10, -0.00, -0.00, -0.00
252.00, -255.00, -125.00, 0.23, -0.17, -0.09, 16.00, 4.04, 39.70, 41.76, -67.98, 0.01, 0.10, 0.01, -1.50, 32.36, -29.55, -0.01, 0.00, -0.00, -1.35, 30.67, -29.90, -0.01, 0.00, -0.00
255.00, -237.00, -152.00, 0.03, -0.18, 0.03, 15.50, 4.04, 37.40, 42.36, -67.79, -0.00, 0.10, 0.01, -2.03, 32.19, -30.02, 0.00, -0.00, -0.00, -1.42, 31.21, -29.81, -0.00, -0.00, -0.00
65.00, -245.00, 65.00, -0.15, 0.17, -0.23, 15.75, 4.07, 36.92, 44.33, -61.55, 0.00, 0.10, 0.01, -1.92, 31.61, -29.90, -0.00, -0.00, -0.00, -1.47, 31.35, -29.79, -0.00, -0.00, -0.00
-218.00, 236.00, -255.00, 0.22, 0.19, -0.02, 15.75, 4.05, -9.75, 69.01, -43.69, 0.01, 0.11, 0.01, 2.33, 28.43, -30.00, -0.01, 0.00, -0.00, -1.11, 30.29, -29.93, -0.00, 0.00, -0.00
255.00, 252.00, -49.00, 0.07, 0.15, 0.25, 15.75, 4.04, 23.00, 65.73, -38.35, 0.00, 0.10, 0.01, -1.91, 30.12, -31.64, -0.00, 0.00, -0.00, -1.20, 30.20, -30.03, -0.00, 0.00, -0.00
125.00, 219.00, 255.00, -0.10, 0.17, -0.09, 15.38, 4.05, 31.85, 68.34, -34.22, 0.00, 0.10, 0.01, -0.38, 29.30, -30.35, -0.00, -0.00, -0.00, -1.12, 29.87, -30.09, -0.00, -0.00, 0.00
-164.00, 237.00, -152.00, 0.18, -0.08, -0.22, 15.63, 4.06, -6.37, 68.94, -39.75, -0.00, 0.10, 0.01, -2.21, 29.54, -31.10, 0.00, -0.00, -0.00, -1.24, 29.74, -30.17, -0.00, -0.00, -0.00
244.00, -138.00, -255.00, 0.18, 0.08, -0.08, 15.63, 4.05, 28.81, 45.54, -61.43, 0.00, 0.10, 0.01, -1.51, 30.55, -27.42, -0.00, -0.00, -0.00, -1.24, 30.06, -29.99, -0.00, -0.00, -0.00
245.00, 139.00, -139.00, 0.25, 0.16, -0.03, 15.63, 4.06, 23.90, 61.34, -45.35, -0.00, 0.10, 0.01, -0.43, 32.10, -31.62, 0.00, -0.00, 0.00, -1.17, 30.76, -29.92, 0.00, -0.00, 0.00
255.00, 228.00, -65.00, -0.04, 0.19, -0.08, 15.38, 4.06, 24.29, 65.64, -39.92, 0.00, 0.10, 0.01, -0.75, 31.38, -31.83, -0.00, -0.00, -0.00, -1.15, 30.95, -29.98, -0.00, -0.00, -0.00
-81.00, 252.00, -138.00, -0.18, -0.13, -0.18, 15.25, 4.07, 2.47, 68.81, -37.85, 0.00, 0.10, 0.01, 1.56, 29.91, -31.19, -0.00, -0.00, -0.00, -0.89, 30.54, -30.07, -0.00, -0.00, -0.00
-244.00, -198.00, -244.00, -0.17, 0.12, 0.17, 15.63, 4.05, 4.02, 49.47, -65.99, -0.00, 0.10, 0.01, -0.16, 30.80, -27.76, 0.00, -0.01, -0.00, -0.80, 30.66, -29.94, 0.00, -0.00, -0.00
-237.00, 188.00, 237.00, -0.10, -0.20, 0.21, 15.50, 4.04, 11.36, 70.74, -38.22, -0.00, 0.10, 0.01, 0.38, 28.63, -31.01, 0.00, -0.00, 0.00, -0.69, 29.92, -30.10, 0.00, -0.00, 0.00
-165.00, -255.00, 255.00, 0.23, -0.20, -0.02, 15.88, 4.03, 32.97, 49.31, -62.74, 0.01, 0.10, 0.01, -0.74, 30.78, -29.71, -0.01, 0.00, -0.00, -0.69, 30.23, -30.03, -0.01, 0.00, -0.00
255.00, -255.00, -49.00, 0.06, 0.25, -0.11, 15.63, 4.04, 41.80, 42.01, -65.92, 0.00, 0.10, 0.00, -3.05, 32.34, -29.31, -0.00, 0.00, -0.00, -0.92, 30.99, -29.86, -0.00, -0.00, -0.01
111.00, 255.00, -177.00, 0.09, 0.19, 0.18, 15.75, 4.06, 10.32, 66.82, -39.33, 0.01, 0.11, 0.01, -0.16, 29.91, -31.55, -0.01, 0.00, -0.00, -0.86, 30.57, -30.01, -0.01, 0.00, -0.00
152.00, 252.00, 244.00, -0.07, -0.07, -0.12, 15.38, 4.05, 31.04, 69.47, -34.03, -0.00, 0.10, 0.01, -1.14, 29.08, -31.29, 0.00, -0.00, -0.00, -0.90, 30.02, -30.16, 0.00, -0.00, -0.00
-125.00, -125.00, -188.00, 0.11, -0.02, -0.18, 15.50, 4.07, 8.70, 50.00, -56.46, 0.00, 0.10, 0.01, -2.29, 30.49, -27.67, -0.00, -0.01, -0.00, -1.01, 30.22, -30.02, -0.00, -0.01, -0.00
176.00, -49.00, -244.00, 0.06, 0.23, -0.13, 15.50, 4.09, 21.06, 49.81, -56.05, -0.00, 0.10, 0.01, -2.16, 29.82, -29.46, 0.00, -0.01, -0.00, -1.12, 30.09, -30.02, 0.00, -0.01, -0.00
110.00, 255.00, -197.00, -0.13, -0.06, -0.17, 15.75, 4.07, 7.97, 65.99, -39.58, -0.00, 0.10, 0.01, -1.51, 29.03, -31.03, 0.00, -0.01, -0.00, -1.17, 29.70, -30.13, -0.00, -0.01, -0.00
-198.00, -111.00, -236.00, 0.15, 0.17, -0.04, 15.63, 4.06, 2.70, 52.06, -60.58, 0.00, 0.10, 0.01, -1.08, 30.35, -29.84, -0.00, -0.00, -0.00, -1.16, 29.93, -30.08, -0.00, -0.00, -0.00
218.00, 236.00, -81.00, -0.14, -0.04, 0.12, 15.88, 4.07, 21.02, 65.74, -38.51, 0.00, 0.10, 0.01, -0.83, 30.68, -31.27, -0.00, 0.00, 0.00, -1.14, 30.18, -30.09, -0.00, 0.00, 0.00
-208.00, -81.00, 187.00, 0.22, -0.20, -0.11, 15.88, 4.08, 20.07, 57.60, -52.09, -0.00, 0.10, 0.01, -1.30, 31.22, -31.32, 0.00, -0.00, -0.00, -1.17, 30.53, -30.08, 0.00, -0.00, -0.00
255.00, -255.00, -175.00, 0.01, -0.24, 0.23, 15.75, 4.05, 37.34, 41.58, -68.39, 0.01, 0.10, 0.01, -1.76, 32.30, -28.24, -0.01, -0.00, -0.00, -1.21, 31.18, -29.88, -0.01, -0.00, -0.00
32.00, -255.00, 255.00, 0.25, 0.00, -0.20, 15.75, 4.04, 42.75, 47.06, -60.89, 0.00, 0.10, 0.01, -2.76, 31.29, -29.12, -0.00, -0.00, -0.00, -1.36, 31.24, -29.84, -0.00, -0.00, -0.00
255.00, 0.00, -255.00, 0.16, 0.18, -0.04, 15.50, 4.05, 23.78, 53.07, -54.28, -0.00, 0.10, 0.01, -1.47, 31.25, -28.74, -0.00, -0.01, -0.00, -1.36, 31.26, -29.78, -0.00, -0.01, -0.00
228.00, 245.00, -81.00, -0.03, -0.01, 0.01, 15.63, 4.05, 19.67, 65.59, -37.93, 0.00, 0.10, 0.01, -2.45, 30.19, -30.82, -0.00, -0.00, -0.00, -1.48, 30.86, -29.91, -0.00, -0.00, -0.00
-65.00, -32.00, 32.00, -0.02, -0.13, -0.24, 15.63, 4.12, 18.72, 55.35, -47.06, 0.00, 0.10, 0.01, -2.21, 31.11, -30.19, -0.00, -0.01, -0.00, -1.56, 30.95, -29.91, -0.00, -0.01, -0.00
-48.00, -196.00, -255.00, 0.15, -0.19, 0.21, 15.50, 4.11, 14.43, 46.90, -64.54, -0.00, 0.11, 0.01, -0.89, 31.96, -28.06, 0.00, 0.00, -0.00, -1.48, 31.33, -29.74, 0.00, 0.00, -0.00
217.00, -250.00, 255.00, -0.04, -0.05, -0.16, 15.50, 4.04, 52.91, 46.21, -61.53, 0.00, 0.10, 0.01, -3.23, 31.97, -28.25, -0.00, -0.01, -0.00, -1.64, 31.58, -29.64, -0.00, -0.01, -0.00
-81.00, -96.00, -228.00, 0.04, -0.23, -0.13, 15.38, 4.06, 9.65, 51.15, -57.45, -0.00, 0.11, 0.01, -1.01, 30.83, -29.50, 0.00, 0.00, -0.00, -1.58, 31.32, -29.67, 0.00, 0.00, -0.00
81.00, -255.00, -198.00, 0.05, 0.11, 0.11, 15.50, 4.08, 24.63, 42.46, -66.87, 0.00, 0.10, 0.01, -3.35, 31.67, -28.08, -0.00, 0.00, 0.00, -1.74, 31.47, -29.58, -0.00, -0.00, 0.00
96.00, 175.00, 175.00, -0.24, -0.11, -0.04, 15.88, 4.08, 26.28, 65.19, -36.39, -0.00, 0.10, 0.01, -2.39, 29.67, -31.21, 0.00, -0.00, -0.00, -1.82, 30.80, -29.77, 0.00, -0.00, -0.00
-255.00, -175.00, -80.00, 0.06, -0.02, -0.24, 15.63, 4.08, 9.16, 51.14, -61.94, -0.00, 0.10, 0.01, -0.83, 31.06, -30.63, 0.00, 0.00, 0.00, -1.73, 30.87, -29.79, 0.00, 0.00, 0.00
110.00, -48.00, -255.00, 0.05, 0.12, 0.20, 15.63, 4.08, 17.41, 51.15, -55.42, 0.00, 0.10, 0.01, -1.34, 30.43, -29.31, -0.00, 0.00, -0.00, -1.69, 30.72, -29.79, -0.00, 0.00, -0.00
96.00, 187.00, 255.00, -0.10, 0.25, -0.17, 15.75, 4.08, 30.85, 66.15, -35.55, 0.00, 0.10, 0.01, -0.90, 28.46, -30.73, -0.00, -0.00, -0.00, -1.62, 29.90, -29.96, -0.00, -0.00, -0.00
-163.00, 255.00, -236.00, 0.13, 0.10, -0.02, 15.75, 4.05, -8.04, 69.77, -41.16, -0.00, 0.10, 0.01, 0.43, 29.39, -30.04, 0.00, -0.00, -0.00, -1.42, 29.71, -29.98, 0.00, -0.00, -0.00
199.00, 164.00, -49.00, 0.23, -0.13, -0.20, 15.75, 4.07, 23.60, 61.63, -39.52, 0.00, 0.10, 0.01, -1.24, 30.21, -30.22, -0.00, -0.00, 0.00, -1.41, 29.88, -29.96, -0.00, -0.00, 0.00
255.00, -198.00, -255.00, 0.03, -0.05, -0.10, 15.50, 4.05, 32.05, 44.05, -67.19, -0.00, 0.10, 0.01, -1.29, 32.05, -28.43, 0.00, -0.00, -0.00, -1.38, 30.66, -29.74, 0.00, -0.00, -0.00
65.00, -96.00, -164.00, -0.13, -0.24, -0.19, 15.63, 4.08, 19.26, 48.44, -54.68, -0.00, 0.10, 0.01, -3.05, 29.88, -29.40, 0.00, -0.00, 0.00, -1.54, 30.39, -29.78, -0.00, -0.00, -0.00
-198.00, -255.00, -251.00, 0.20, -0.20, 0.21, 15.50, 4.06, 7.60, 46.13, -69.18, 0.00, 0.10, 0.01, -1.13, 31.20, -26.66, -0.00, -0.00, -0.00, -1.48, 30.72, -29.57, -0.00, -0.00, -0.00
255.00, -255.00, 255.00, 0.22, -0.06, 0.01, 15.75, 4.01, 54.11, 45.28, -62.96, -0.00, 0.10, 0.01, -4.03, 31.53, -28.68, 0.00, -0.00, 0.00, -1.72, 31.02, -29.49, -0.00, -0.00, 0.00
255.00, -112.00, 32.00, 0.04, -0.19, 0.01, 15.63, 4.05, 39.54, 48.38, -54.81, 0.00, 0.10, 0.01, -3.55, 31.41, -30.46, -0.00, 0.00, -0.00, -1.92, 31.15, -29.52, -0.00, 0.00, -0.00
81.00, -252.00, 32.00, 0.14, 0.08, 0.23, 15.50, 4.10, 35.82, 43.41, -61.90, 0.00, 0.10, 0.01, -2.85, 31.62, -29.03, -0.00, -0.01, -0.00, -2.00, 31.32, -29.47, -0.00, -0.01, -0.00
207.00, 138.00, 255.00, 0.21, -0.11, -0.08, 15.88, 4.07, 37.14, 62.16, -38.91, 0.01, 0.10, 0.01, -3.01, 28.21, -30.42, -0.01, 0.00, 0.00, -2.12, 30.20, -29.70, -0.01, 0.00, 0.00
255.00, -176.00, -138.00, -0.09, -0.24, 0.00, 15.75, 4.05, 34.80, 45.21, -63.14, -0.00, 0.10, 0.00, -3.04, 32.26, -30.59, 0.00, 0.00, -0.01, -2.21, 30.92, -29.61, 0.00, 0.00, -0.01
-152.00, -255.00, 0.00, -0.06, -0.02, 0.02, 15.63, 4.07, 21.31, 45.97, -62.99, -0.00, 0.10, 0.01, -1.85, 31.47, -28.58, 0.00, -0.00, -0.00, -2.17, 31.13, -29.52, 0.00, -0.00, -0.00
-110.00, -49.00, 49.00, -0.04, -0.10, 0.20, 15.50, 4.12, 18.14, 54.41, -47.79, -0.00, 0.10, 0.01, -1.56, 30.23, -29.65, 0.00, -0.00, -0.00, -2.11, 30.81, -29.58, 0.00, -0.00, -0.00
-80.00, -162.00, 255.00, -0.13, 0.05, 0.13, 15.38, 4.11, 33.09, 53.00, -54.03, -0.00, 0.10, 0.01, -2.58, 31.70, -29.01, 0.00, -0.00, -0.00, -2.15, 31.13, -29.50, 0.00, -0.00, -0.00
-197.00, 95.00, 197.00, 0.19, 0.22, -0.02, 15.50, 4.08, 14.24, 66.37, -41.29, 0.00, 0.10, 0.01, -0.90, 30.81, -30.66, -0.00, -0.01, -0.00, -2.04, 30.99, -29.57, 0.00, -0.01, -0.00
251.00, 255.00, -48.00, -0.04, 0.23, 0.12, 15.50, 4.07, 23.24, 66.33, -37.84, 0.01, 0.10, 0.01, -1.43, 30.41, -31.40, -0.01, -0.00, -0.00, -1.99, 30.75, -29.69, -0.01, -0.00, -0.00
-81.00, 255.00, 187.00, -0.24, 0.00, 0.10, 15.63, 4.06, 15.11, 72.14, -33.05, 0.00, 0.10, 0.01, -0.67, 30.14, -31.08, -0.00, -0.01, -0.00, -1.88, 30.50, -29.79, -0.00, -0.01, -0.00
-255.00, 0.00, 164.00, 0.12, -0.07, 0.19, 15.63, 4.08, 12.58, 60.84, -46.70, -0.00, 0.10, 0.01, -1.43, 29.50, -29.92, 0.00, -0.00, -0.00, -1.84, 30.14, -29.85, 0.00, -0.00, -0.00
187.00, -124.00, 251.00, 0.11, 0.01, -0.23, 15.63, 4.07, 44.46, 50.69, -54.08, 0.01, 0.10, 0.01, -5.20, 30.35, -31.00, -0.01, -0.00, -0.00, -2.18, 30.20, -29.90, -0.01, -0.00, -0.00
176.00, 32.00, -255.00, 0.01, 0.15, 0.08, 15.50, 4.07, 16.46, 54.15, -50.89, -0.00, 0.11, 0.01, -2.84, 29.86, -28.60, 0.00, 0.00, -0.00, -2.23, 30.10, -29.86, 0.00, 0.00, -0.00
32.00, 218.00, 138.00, -0.20, 0.12, 0.25, 15.63, 4.09, 19.47, 67.76, -33.86, 0.00, 0.10, 0.01, -2.15, 29.81, -30.75, -0.00, -0.00, 0.00, -2.23, 29.98, -29.92, -0.00, -0.00, 0.00
-255.00, 186.00, 255.00, -0.12, 0.11, 0.23, 15.75, 4.06, 10.73, 70.97, -36.79, 0.00, 0.10, 0.01, 0.13, 27.96, -29.20, -0.00, -0.00, -0.00, -2.01, 29.26, -29.99, -0.00, -0.00, -0.00
