96.00, 110.00, 65.00, 0.02, 0.19, 0.10, 15.38, 4.11, 23.08, 60.38, -38.82, 0.00, 0.10, 0.01, 5.28, 40.41, -14.89, -0.00, -0.00, 0.00, 2.55, 39.27, -4.00, 0.00, -0.00, 0.00
48.00, 250.00, 163.00, -0.20, -0.14, 0.25, 15.25, 4.11, 19.12, 69.79, -33.63, -0.00, 0.10, 0.01, -2.57, 57.50, 3.61, 0.00, -0.00, -0.00, 1.89, 44.88, -3.45, -0.00, -0.00, -0.00
-255.00, -207.00, 255.00, -0.04, -0.18, 0.08, 15.38, 4.04, 23.68, 52.27, -60.96, 0.00, 0.11, 0.01, 6.63, 19.34, -45.59, -0.00, 0.00, 0.00, 1.95, 33.96, -5.97, 0.01, 0.00, 0.01
-81.00, -245.00, 139.00, -0.02, -0.11, 0.16, 15.63, 4.05, 30.01, 45.95, -61.41, -0.00, 0.11, 0.01, 19.14, 9.35, -54.62, 0.00, 0.00, -0.00, 3.07, 22.78, -7.27, 0.02, 0.01, 0.01
-49.00, -176.00, 228.00, -0.15, -0.05, -0.19, 15.75, 4.08, 32.81, 50.47, -55.86, 0.00, 0.11, 0.01, 25.62, 17.23, -43.03, -0.00, 0.00, 0.00, 4.60, 19.88, -7.96, 0.02, 0.01, 0.01
-218.00, -96.00, -251.00, 0.21, 0.25, 0.03, 15.25, 4.07, 1.36, 53.77, -59.84, -0.00, 0.10, 0.01, -40.94, 22.36, -49.00, 0.00, -0.00, -0.00, 0.18, 19.73, -7.51, -0.03, -0.01, -0.01
255.00, 255.00, 65.00, -0.05, 0.23, 0.00, 15.63, 4.05, 28.30, 66.97, -34.98, 0.01, 0.10, 0.01, 14.43, 50.47, 2.29, -0.01, -0.00, -0.00, 1.30, 28.95, -6.50, 0.01, 0.00, 0.00
-96.00, 255.00, 0.00, 0.22, 0.25, -0.18, 15.50, 4.07, 2.62, 70.68, -33.22, 0.00, 0.10, 0.01, -35.43, 59.33, 0.32, -0.00, -0.00, -0.00, -2.42, 37.67, -6.72, -0.03, -0.01, -0.01
255.00, 255.00, -244.00, 0.10, 0.19, 0.21, 15.38, 4.04, 14.10, 65.48, -42.18, -0.00, 0.10, 0.01, -13.74, 45.16, -7.40, -0.00, -0.00, -0.00, -3.58, 39.94, -6.80, -0.01, -0.01, -0.00
164.00, 252.00, 255.00, -0.17, -0.18, -0.15, 15.63, 4.02, 30.85, 70.14, -33.25, 0.00, 0.11, 0.01, 20.13, 55.61, 8.23, -0.00, 0.00, -0.00, -0.53, 43.77, -4.81, 0.01, 0.01, 0.01
-238.00, -246.00, -220.00, -0.20, -0.22, -0.09, 15.50, 4.02, 6.53, 46.70, -68.01, -0.00, 0.11, 0.01, -29.67, 8.09, -63.52, 0.00, 0.00, -0.00, -4.10, 26.41, -5.78, -0.01, -0.00, -0.01
-255.00, -255.00, -153.00, 0.09, 0.14, -0.23, 15.50, 4.02, 9.30, 46.77, -67.87, -0.00, 0.10, 0.01, -24.65, 9.01, -63.37, 0.00, -0.01, -0.00, -6.60, 18.04, -6.66, -0.01, -0.01, -0.00
153.00, 210.00, -255.00, 0.16, 0.06, 0.13, 15.25, 4.04, 9.32, 64.40, -43.12, 0.00, 0.10, 0.01, -23.53, 44.10, -13.81, -0.00, 0.00, -0.00, -7.69, 26.30, -6.46, -0.01, -0.00, -0.01
228.00, 111.00, 199.00, 0.21, -0.18, -0.11, 15.25, 4.06, 37.94, 60.44, -39.78, 0.00, 0.11, 0.01, 34.25, 38.10, -9.96, -0.00, 0.00, -0.00, -4.30, 28.67, -5.43, 0.03, 0.01, 0.01
255.00, -244.00, -176.00, -0.13, 0.03, 0.18, 15.50, 4.04, 37.07, 41.42, -68.61, 0.01, 0.10, 0.01, 31.90, -3.17, -63.53, -0.01, -0.00, 0.00, -1.13, 13.79, -4.73, 0.03, 0.00, 0.02
-199.00, 65.00, 245.00, -0.18, -0.06, -0.12, 15.25, 4.05, 16.90, 63.71, -41.64, -0.00, 0.10, 0.01, -8.28, 44.69, -13.79, 0.00, 0.00, 0.00, -1.72, 23.61, -4.46, 0.00, 0.00, 0.00
-245.00, -111.00, -188.00, -0.23, -0.14, 0.06, 15.50, 4.07, 2.98, 54.11, -59.37, 0.00, 0.10, 0.01, -37.50, 23.38, -48.87, -0.00, 0.00, -0.00, -5.19, 22.25, -4.92, -0.02, -0.00, -0.01
-255.00, -208.00, 111.00, -0.16, -0.03, 0.07, 15.38, 4.06, 17.64, 50.22, -60.70, 0.01, 0.11, 0.01, -5.98, 17.26, -50.60, -0.01, 0.00, 0.00, -5.55, 19.64, -6.19, 0.00, 0.00, 0.01
-228.00, -65.00, 125.00, -0.10, 0.23, -0.10, 15.75, 4.08, 16.25, 56.37, -48.63, 0.00, 0.10, 0.01, -10.75, 30.92, -32.01, -0.00, -0.00, -0.00, -6.05, 23.25, -6.72, 0.00, -0.00, 0.00
-163.00, 255.00, -163.00, 0.23, 0.01, 0.14, 15.50, 4.07, -8.35, 70.46, -36.95, -0.00, 0.10, 0.01, -57.81, 57.77, -4.08, 0.00, -0.00, -0.00, -10.08, 32.95, -7.20, -0.03, -0.01, -0.02
255.00, 32.00, 208.00, 0.07, -0.06, 0.13, 15.50, 4.06, 42.62, 57.73, -45.02, 0.00, 0.11, 0.01, 44.34, 30.68, -19.36, -0.00, 0.00, 0.00, -5.62, 29.90, -6.12, 0.04, 0.01, 0.02
125.00, -111.00, 198.00, -0.23, 0.13, -0.11, 15.38, 4.09, 42.17, 50.37, -49.08, 0.00, 0.10, 0.01, 41.57, 18.52, -33.63, -0.00, -0.00, 0.00, -2.04, 24.06, -5.75, 0.04, 0.01, 0.02
-255.00, 197.00, -175.00, 0.05, 0.21, -0.24, 15.13, 4.07, -11.15, 68.27, -41.98, 0.00, 0.10, 0.01, -64.32, 53.61, -12.21, -0.00, -0.00, -0.00, -7.10, 31.57, -6.24, -0.05, -0.01, -0.02
96.00, 255.00, -255.00, -0.24, -0.11, -0.12, 15.25, 4.04, 4.59, 66.73, -40.28, 0.00, 0.10, 0.01, -33.38, 49.46, -7.86, -0.00, -0.00, -0.00, -9.45, 36.73, -6.40, -0.02, -0.01, -0.01
-255.00, -176.00, -188.00, 0.10, -0.01, 0.23, 15.38, 4.04, 4.57, 48.61, -61.12, 0.00, 0.10, 0.01, -33.84, 14.52, -53.33, -0.00, -0.00, -0.00, -11.90, 26.14, -7.80, -0.01, -0.01, -0.00
164.00, -32.00, 255.00, -0.03, 0.06, 0.16, 15.38, 4.06, 41.25, 55.69, -47.98, 0.00, 0.10, 0.01, 42.20, 27.31, -25.53, -0.00, -0.00, -0.00, -7.71, 24.62, -6.66, 0.04, 0.01, 0.02
-65.00, 111.00, 227.00, -0.17, 0.04, 0.02, 15.50, 4.09, 22.46, 63.40, -37.96, -0.00, 0.11, 0.01, 2.46, 45.56, -9.23, 0.00, 0.00, -0.00, -6.68, 31.12, -6.21, 0.01, 0.01, 0.00
-235.00, 80.00, 48.00, -0.21, 0.23, -0.16, 15.38, 4.10, 5.22, 62.01, -41.67, 0.00, 0.10, 0.01, -31.99, 43.97, -18.37, -0.00, -0.00, -0.00, -8.99, 34.68, -6.78, -0.02, -0.00, -0.01
-255.00, 255.00, -226.00, 0.19, 0.14, 0.14, 15.38, 4.05, -12.96, 71.46, -41.61, 0.00, 0.11, 0.01, -70.36, 58.48, -7.08, -0.00, 0.00, -0.00, -14.81, 39.59, -7.60, -0.05, -0.01, -0.02
252.00, 209.00, 209.00, 0.11, 0.19, 0.14, 15.63, 4.02, 35.27, 66.09, -36.73, 0.00, 0.10, 0.01, 29.40, 47.73, 0.83, -0.00, -0.00, -0.00, -9.84, 40.23, -5.75, 0.03, 0.00, 0.01
177.00, 253.00, 210.00, -0.04, -0.13, 0.22, 15.38, 4.04, 28.03, 69.80, -34.10, 0.00, 0.10, 0.01, 16.08, 55.25, 5.97, -0.00, -0.00, -0.00, -6.40, 43.98, -4.02, 0.02, 0.00, 0.01
-81.00, -199.00, 255.00, 0.13, -0.14, -0.15, 15.25, 4.05, 33.48, 51.24, -56.99, 0.00, 0.10, 0.01, 26.32, 17.08, -43.73, -0.00, -0.00, -0.00, -3.56, 32.09, -5.43, 0.03, 0.00, 0.01
198.00, -209.00, -218.00, 0.13, -0.06, -0.21, 15.50, 4.05, 30.18, 43.67, -65.10, -0.00, 0.10, 0.01, 18.49, 1.59, -59.62, 0.00, -0.00, -0.00, -1.84, 18.23, -5.93, 0.02, 0.00, 0.01
198.00, -111.00, -255.00, -0.01, -0.24, 0.00, 15.63, 4.05, 26.31, 47.02, -58.18, 0.00, 0.10, 0.01, 9.28, 9.53, -48.16, -0.00, -0.01, -0.00, -1.25, 14.49, -6.77, 0.01, -0.00, 0.01
-32.00, -255.00, 0.00, -0.19, 0.09, -0.22, 15.00, 4.09, 28.12, 43.66, -62.80, -0.00, 0.10, 0.01, 14.14, 5.25, -59.85, 0.00, -0.00, -0.00, -0.30, 10.33, -7.49, 0.02, 0.00, 0.01
-251.00, 151.00, -255.00, -0.04, 0.13, -0.22, 15.38, 4.06, -11.49, 67.30, -47.59, 0.00, 0.10, 0.01, -66.08, 48.87, -21.27, -0.00, -0.00, -0.00, -4.47, 21.97, -6.38, -0.05, -0.01, -0.02
-81.00, 198.00, -255.00, -0.14, -0.19, -0.14, 15.50, 4.05, -2.12, 67.09, -42.46, 0.00, 0.10, 0.01, -48.47, 49.22, -15.12, -0.00, -0.01, -0.00, -7.88, 29.79, -6.41, -0.03, -0.01, -0.01
-209.00, -252.00, -209.00, -0.24, 0.22, 0.18, 15.38, 4.04, 9.06, 46.00, -67.92, -0.00, 0.10, 0.01, -24.90, 6.86, -64.35, 0.00, -0.00, -0.00, -9.87, 18.82, -7.38, -0.00, -0.01, -0.00
-255.00, 255.00, 245.00, 0.11, -0.14, 0.23, 15.38, 4.02, 6.30, 75.34, -35.41, 0.00, 0.11, 0.01, -29.44, 65.78, 7.21, -0.00, 0.00, -0.00, -10.65, 33.47, -7.23, -0.02, -0.00, -0.01
177.00, -210.00, 255.00, 0.00, 0.07, -0.16, 15.25, 4.02, 48.16, 46.26, -58.87, 0.00, 0.10, 0.01, 56.46, 8.17, -44.75, -0.00, -0.00, 0.00, -5.14, 20.80, -4.84, 0.05, 0.01, 0.03
0.00, 126.00, -229.00, 0.12, -0.05, -0.24, 15.63, 4.07, 5.83, 59.65, -42.91, -0.00, 0.10, 0.00, -31.86, 38.07, -21.16, 0.00, -0.01, -0.00, -7.11, 26.03, -5.11, -0.02, -0.01, -0.01
187.00, -96.00, -255.00, -0.09, -0.19, 0.08, 15.38, 4.08, 22.90, 49.24, -59.30, -0.00, 0.10, 0.01, 4.63, 12.69, -48.74, 0.00, -0.00, -0.00, -6.30, 20.16, -6.34, 0.02, 0.00, 0.01
-151.00, -251.00, 138.00, 0.00, -0.13, -0.18, 15.38, 4.07, 26.91, 46.35, -62.17, 0.00, 0.11, 0.01, 12.14, 9.98, -55.04, -0.00, 0.00, -0.00, -4.87, 15.38, -7.22, 0.02, 0.01, 0.01
0.00, -198.00, -244.00, -0.22, -0.06, -0.09, 15.50, 4.07, 17.04, 45.75, -64.62, 0.00, 0.10, 0.01, -8.12, 6.76, -60.54, -0.00, -0.00, 0.00, -5.54, 11.57, -8.11, 0.01, -0.00, 0.01
-255.00, -110.00, -151.00, -0.04, -0.06, -0.01, 15.38, 4.07, 3.46, 53.13, -56.72, 0.01, 0.10, 0.01, -36.03, 23.18, -45.88, -0.01, -0.00, 0.00, -8.06, 15.61, -7.81, -0.02, -0.01, -0.00
-81.00, -110.00, -32.00, 0.15, -0.18, -0.05, 15.38, 4.11, 17.64, 50.54, -51.72, 0.00, 0.10, 0.01, -6.18, 20.31, -42.63, -0.00, -0.00, -0.00, -8.01, 17.05, -8.49, 0.01, -0.00, 0.00
217.00, -243.00, -95.00, 0.06, -0.19, 0.08, 14.88, 4.10, 37.62, 41.13, -64.15, 0.00, 0.10, 0.01, 34.02, -1.54, -59.53, -0.00, -0.00, -0.00, -4.17, 8.54, -7.55, 0.04, 0.01, 0.02
110.00, -251.00, 138.00, 0.19, 0.00, 0.21, 15.13, 4.07, 42.20, 43.55, -62.35, -0.00, 0.11, 0.01, 42.96, 4.30, -55.33, 0.00, 0.00, -0.00, -0.24, 6.24, -6.39, 0.05, 0.01, 0.02
252.00, 0.00, 255.00, -0.14, -0.01, -0.19, 15.25, 4.06, 45.37, 56.20, -46.39, 0.00, 0.10, 0.01, 50.38, 27.48, -20.58, -0.00, 0.00, -0.00, 2.51, 12.34, -4.70, 0.04, 0.01, 0.02
-208.00, -32.00, -252.00, 0.06, 0.21, 0.21, 15.38, 4.06, -2.09, 56.23, -55.23, 0.00, 0.10, 0.01, -46.44, 28.11, -41.31, -0.00, -0.01, 0.00, -1.38, 17.31, -3.80, -0.03, -0.01, -0.01
111.00, 255.00, 255.00, -0.19, 0.20, 0.24, 15.63, 4.05, 25.90, 70.89, -32.90, -0.00, 0.10, 0.01, 12.02, 57.56, 8.53, 0.00, -0.00, -0.00, -0.21, 29.49, -3.36, 0.01, -0.00, 0.00
-252.00, 255.00, 255.00, -0.01, -0.21, 0.00, 15.13, 4.02, 7.15, 74.60, -35.38, 0.00, 0.10, 0.01, -28.02, 65.02, 7.75, -0.00, -0.00, -0.00, -3.18, 40.13, -3.87, -0.02, -0.01, -0.01
-32.00, -255.00, 0.00, -0.14, 0.17, -0.18, 15.13, 4.06, 27.55, 43.51, -62.32, 0.01, 0.10, 0.01, 13.50, 5.23, -59.27, -0.01, -0.00, -0.00, -1.98, 24.13, -5.05, 0.01, -0.00, 0.01
-209.00, 236.00, -244.00, 0.20, 0.19, 0.16, 15.50, 4.06, -10.19, 69.31, -42.09, 0.00, 0.11, 0.01, -65.15, 54.66, -10.05, -0.00, 0.00, 0.00, -7.11, 31.88, -5.79, -0.05, -0.01, -0.02
255.00, 252.00, 227.00, 0.13, 0.05, 0.11, 15.38, 4.02, 34.35, 68.53, -35.59, 0.01, 0.10, 0.01, 27.85, 52.02, 6.32, -0.01, -0.00, -0.00, -3.32, 36.70, -4.14, 0.02, 0.00, 0.01
200.00, 97.00, 177.00, 0.25, 0.05, -0.14, 15.38, 4.05, 35.50, 60.25, -40.16, -0.00, 0.10, 0.01, 29.60, 37.88, -12.65, 0.00, -0.00, -0.00, -0.33, 35.94, -3.96, 0.03, 0.00, 0.01
255.00, 96.00, -209.00, -0.17, -0.07, -0.19, 15.63, 4.07, 21.35, 57.29, -47.71, 0.00, 0.10, 0.01, 1.26, 30.12, -24.95, -0.00, -0.00, -0.00, -0.35, 33.69, -5.28, 0.00, -0.00, 0.00
-236.00, -125.00, -251.00, 0.13, -0.01, 0.02, 15.88, 4.05, 1.42, 51.21, -59.69, 0.00, 0.11, 0.01, -40.62, 18.44, -49.93, -0.00, 0.00, -0.00, -4.36, 25.88, -5.99, -0.03, -0.00, -0.01
199.00, -32.00, 49.00, 0.21, -0.12, -0.02, 15.63, 4.09, 34.49, 52.00, -47.53, 0.00, 0.10, 0.01, 28.25, 22.63, -31.34, -0.00, -0.00, 0.00, -1.97, 23.76, -6.21, 0.03, 0.00, 0.02
255.00, -186.00, -48.00, 0.21, -0.21, -0.21, 15.25, 4.10, 40.65, 42.97, -59.78, 0.00, 0.10, 0.01, 39.56, 3.02, -51.58, -0.00, 0.00, -0.00, 1.25, 14.24, -5.60, 0.04, 0.01, 0.02
255.00, -255.00, -255.00, 0.09, -0.07, -0.19, 15.50, 4.03, 33.31, 40.72, -70.55, 0.01, 0.10, 0.01, 25.00, -5.88, -65.77, -0.01, -0.00, 0.00, 2.88, 5.43, -5.60, 0.02, 0.00, 0.01
152.00, -126.00, -253.00, -0.07, 0.02, 0.03, 15.50, 4.04, 21.82, 46.08, -60.30, 0.00, 0.10, 0.01, 2.67, 8.82, -51.70, -0.00, -0.00, -0.00, 2.31, 6.93, -6.20, 0.01, -0.00, 0.00
-125.00, 49.00, 65.00, 0.02, 0.25, -0.20, 15.38, 4.11, 14.16, 59.35, -41.76, 0.00, 0.11, 0.01, -14.42, 38.75, -21.82, -0.00, 0.00, -0.00, 1.03, 17.31, -5.61, -0.01, -0.00, -0.00
48.00, 255.00, -255.00, 0.04, -0.22, -0.13, 15.50, 4.09, 2.37, 67.26, -39.43, -0.00, 0.10, 0.01, -38.74, 50.75, -7.17, 0.00, -0.00, 0.00, -1.99, 27.28, -5.75, -0.03, -0.01, -0.01
80.00, -255.00, -197.00, -0.19, -0.04, -0.08, 15.25, 4.06, 27.21, 41.79, -67.80, 0.00, 0.10, 0.01, 10.90, -0.36, -65.77, -0.00, -0.00, -0.00, -1.25, 14.53, -6.37, 0.02, 0.00, 0.01
-252.00, -81.00, -138.00, 0.20, 0.07, 0.06, 15.50, 4.07, 3.30, 54.95, -56.34, -0.00, 0.10, 0.01, -36.59, 26.73, -44.12, 0.00, -0.00, 0.00, -4.31, 18.41, -6.08, -0.02, -0.01, -0.01
255.00, 125.00, 110.00, 0.06, -0.20, 0.12, 15.63, 4.08, 35.49, 58.93, -40.11, -0.00, 0.10, 0.01, 28.90, 36.50, -11.70, 0.00, -0.00, -0.00, -2.00, 23.38, -5.27, 0.03, 0.01, 0.01
110.00, -255.00, 187.00, -0.15, -0.17, -0.20, 15.63, 4.07, 46.29, 44.84, -61.49, 0.00, 0.10, 0.01, 49.49, 5.35, -53.08, -0.00, -0.00, 0.00, 2.18, 14.41, -4.03, 0.04, 0.01, 0.02
-218.00, -236.00, -255.00, 0.05, -0.22, -0.09, 15.50, 4.04, 6.42, 46.68, -69.85, 0.00, 0.10, 0.01, -30.56, 7.64, -65.30, -0.00, -0.00, -0.00, -1.81, 11.40, -3.94, -0.02, -0.01, -0.00
96.00, -255.00, -152.00, -0.21, 0.08, 0.12, 15.63, 4.05, 28.71, 41.86, -66.15, -0.00, 0.11, 0.01, 15.36, 0.27, -63.97, 0.00, 0.00, -0.00, -0.74, 6.64, -4.53, 0.02, 0.01, 0.01
-255.00, 139.00, 188.00, 0.08, -0.11, -0.07, 15.38, 4.06, 8.99, 69.73, -40.69, 0.00, 0.10, 0.01, -25.13, 55.08, -9.04, -0.00, -0.00, 0.00, -2.30, 21.84, -4.22, -0.02, -0.01, -0.01
138.00, -176.00, -125.00, -0.17, 0.09, -0.14, 15.50, 4.08, 30.12, 43.82, -58.74, 0.00, 0.10, 0.01, 17.81, 6.16, -52.68, -0.00, -0.00, 0.00, -0.94, 14.95, -4.92, 0.02, 0.00, 0.01
-235.00, 151.00, -208.00, -0.07, -0.08, 0.22, 15.63, 4.07, -7.37, 66.69, -44.86, 0.00, 0.11, 0.01, -59.05, 49.03, -19.04, -0.00, 0.00, -0.00, -4.97, 24.87, -4.66, -0.04, -0.01, -0.02
-125.00, -138.00, 255.00, -0.05, 0.04, -0.03, 15.75, 4.06, 29.51, 52.69, -53.49, 0.00, 0.10, 0.01, 17.52, 22.21, -37.24, -0.00, -0.00, -0.00, -3.34, 23.16, -5.44, 0.02, 0.00, 0.01
-96.00, 81.00, -65.00, -0.17, -0.18, -0.04, 15.50, 4.11, 9.27, 58.70, -41.74, 0.00, 0.10, 0.01, -25.05, 38.43, -22.12, -0.00, -0.00, 0.00, -5.12, 27.80, -5.82, -0.01, -0.00, -0.00
-234.00, -243.00, -80.00, -0.21, 0.04, -0.20, 15.50, 4.10, 13.12, 46.86, -65.23, 0.00, 0.11, 0.01, -16.97, 10.22, -60.54, -0.00, 0.00, -0.00, -6.66, 19.48, -7.09, -0.00, 0.00, 0.00
-255.00, 80.00, -255.00, 0.06, 0.03, 0.24, 15.50, 4.05, -8.58, 61.52, -50.47, -0.00, 0.10, 0.01, -60.33, 39.59, -28.98, 0.00, -0.00, 0.00, -10.56, 24.99, -6.56, -0.03, -0.01, -0.01
111.00, 65.00, 255.00, -0.04, -0.20, -0.10, 15.38, 4.07, 35.28, 61.24, -40.53, 0.00, 0.10, 0.01, 28.98, 38.84, -13.05, -0.00, 0.00, 0.00, -7.28, 28.29, -5.64, 0.03, 0.01, 0.02
-81.00, -255.00, -164.00, -0.14, -0.05, 0.01, 15.50, 4.08, 17.35, 43.88, -67.00, 0.00, 0.10, 0.01, -7.07, 3.95, -65.34, -0.00, -0.00, -0.00, -7.56, 16.92, -6.76, 0.01, -0.00, 0.01
-208.00, -96.00, 32.00, 0.24, 0.07, -0.23, 15.38, 4.10, 13.75, 53.17, -51.55, -0.00, 0.10, 0.01, -15.18, 25.44, -39.15, 0.00, -0.01, -0.00, -8.24, 19.66, -7.34, 0.00, -0.01, 0.00
255.00, 124.00, -255.00, -0.15, -0.23, -0.02, 15.38, 4.07, 18.15, 58.81, -49.24, 0.00, 0.11, 0.01, -5.11, 32.09, -24.48, -0.00, 0.00, -0.00, -8.00, 23.67, -7.57, 0.00, 0.00, 0.00
-218.00, -255.00, -49.00, -0.07, -0.22, 0.00, 15.63, 4.05, 14.00, 46.20, -65.49, 0.00, 0.11, 0.01, -13.19, 9.24, -61.24, -0.00, 0.00, -0.00, -8.76, 16.88, -8.78, 0.00, 0.00, 0.00
-125.00, -255.00, 0.00, 0.21, -0.03, -0.21, 15.25, 4.08, 22.73, 45.97, -63.77, 0.00, 0.11, 0.01, 3.21, 8.47, -60.29, -0.00, 0.00, -0.00, -7.77, 12.91, -9.72, 0.02, 0.00, 0.01
255.00, -65.00, -255.00, 0.01, 0.04, -0.08, 15.63, 4.07, 25.58, 49.05, -58.77, 0.00, 0.10, 0.01, 10.22, 12.58, -45.39, -0.00, -0.00, -0.00, -6.45, 12.46, -10.17, 0.02, 0.00, 0.01
32.00, 81.00, -138.00, 0.18, 0.23, 0.14, 15.50, 4.10, 13.72, 58.67, -43.63, 0.00, 0.10, 0.01, -16.22, 36.10, -24.69, -0.00, 0.00, 0.00, -7.05, 20.32, -9.71, -0.00, -0.00, 0.00
243.00, 255.00, 207.00, 0.08, -0.07, -0.20, 15.38, 4.07, 32.17, 69.42, -34.84, -0.00, 0.10, 0.01, 24.21, 53.57, 6.79, 0.00, -0.00, -0.00, -4.00, 29.54, -7.96, 0.03, 0.00, 0.01
138.00, -125.00, -255.00, 0.19, 0.21, 0.25, 15.25, 4.05, 19.75, 48.19, -61.60, 0.00, 0.11, 0.01, -0.40, 11.18, -53.05, -0.00, 0.00, -0.00, -3.97, 21.39, -9.38, 0.00, 0.00, 0.00
252.00, 255.00, 255.00, -0.17, 0.12, -0.22, 15.38, 4.03, 34.74, 70.01, -34.61, 0.00, 0.10, 0.01, 29.29, 53.68, 8.86, -0.00, -0.00, -0.00, -0.87, 30.12, -7.58, 0.03, 0.01, 0.01
-237.00, 188.00, -255.00, -0.07, 0.21, -0.11, 15.50, 4.02, -10.80, 66.81, -44.86, -0.00, 0.10, 0.01, -65.49, 49.85, -16.32, 0.00, -0.00, -0.00, -6.61, 33.87, -7.82, -0.05, -0.01, -0.02
-126.00, 255.00, -177.00, 0.16, 0.24, 0.22, 15.63, 4.04, -6.36, 70.10, -38.37, 0.00, 0.10, 0.01, -54.02, 56.72, -6.13, -0.00, -0.00, 0.00, -11.21, 39.48, -8.09, -0.03, -0.01, -0.01
228.00, 255.00, 255.00, -0.23, -0.17, -0.07, 15.50, 4.03, 33.63, 69.73, -35.11, -0.00, 0.10, 0.01, 26.73, 54.00, 7.86, 0.00, -0.01, 0.00, -6.42, 42.18, -5.69, 0.03, 0.00, 0.01
-255.00, -237.00, -126.00, 0.23, 0.04, -0.24, 15.25, 4.03, 8.24, 47.78, -66.15, 0.00, 0.10, 0.01, -25.14, 11.40, -60.77, -0.00, -0.00, -0.00, -8.68, 27.31, -7.43, -0.01, -0.01, -0.00
255.00, 81.00, -255.00, -0.15, 0.06, -0.14, 15.38, 4.04, 20.86, 57.45, -50.28, 0.00, 0.10, 0.01, -0.63, 28.63, -28.48, -0.00, -0.00, -0.00, -8.10, 27.45, -8.24, 0.01, 0.00, 0.00
-219.00, 111.00, -209.00, -0.08, -0.13, 0.19, 15.50, 4.05, -7.09, 65.19, -47.21, 0.00, 0.10, 0.01, -56.07, 45.34, -24.58, -0.00, -0.00, -0.00, -12.16, 31.81, -8.24, -0.04, -0.01, -0.02
-139.00, -198.00, 252.00, -0.15, -0.21, 0.24, 15.13, 4.06, 30.78, 50.79, -56.42, -0.00, 0.10, 0.01, 20.06, 17.20, -42.78, 0.00, -0.00, -0.00, -9.40, 25.20, -9.03, 0.03, 0.00, 0.01
-218.00, -255.00, 255.00, 0.06, 0.10, 0.19, 15.13, 4.03, 27.86, 50.12, -62.57, 0.00, 0.10, 0.01, 14.57, 14.22, -49.97, -0.00, -0.00, -0.00, -7.33, 20.00, -9.93, 0.02, 0.00, 0.01
111.00, 165.00, 253.00, 0.15, 0.14, 0.07, 15.50, 4.04, 30.27, 66.22, -37.85, 0.00, 0.10, 0.01, 19.69, 48.70, -3.81, -0.00, -0.00, -0.00, -4.88, 28.32, -8.44, 0.02, 0.00, 0.01
219.00, 209.00, 125.00, 0.18, -0.23, 0.00, 15.25, 4.06, 29.35, 66.22, -37.65, -0.00, 0.11, 0.01, 17.79, 48.80, -3.22, 0.00, 0.00, -0.00, -2.64, 34.16, -7.25, 0.02, 0.01, 0.01
244.00, -255.00, 0.00, 0.20, 0.19, -0.09, 15.13, 4.06, 44.07, 42.14, -65.33, 0.00, 0.11, 0.01, 46.67, -0.69, -59.55, -0.00, 0.00, -0.00, 1.70, 17.32, -5.63, 0.04, 0.01, 0.02
255.00, 252.00, -152.00, 0.25, -0.09, 0.13, 15.38, 4.04, 18.94, 66.18, -40.85, 0.00, 0.10, 0.01, -4.74, 47.38, -6.41, -0.00, -0.00, -0.00, 1.06, 26.74, -5.35, -0.00, -0.00, -0.00
255.00, -152.00, 199.00, -0.16, 0.17, 0.24, 15.63, 4.04, 48.57, 48.99, -56.80, 0.00, 0.10, 0.01, 57.15, 12.25, -41.11, -0.00, -0.00, -0.00, 5.23, 18.96, -4.01, 0.04, 0.00, 0.02
-228.00, 237.00, 255.00, 0.19, 0.05, -0.09, 15.25, 4.03, 9.72, 73.57, -35.98, 0.00, 0.10, 0.01, -23.46, 62.99, 5.21, -0.00, -0.00, -0.00, 2.27, 32.37, -4.72, -0.02, -0.00, -0.01
253.00, 97.00, -152.00, 0.15, -0.15, 0.14, 15.63, 4.04, 22.86, 57.85, -46.45, 0.00, 0.10, 0.01, 5.14, 31.74, -23.79, -0.00, -0.01, -0.00, 2.33, 31.90, -5.73, 0.00, -0.01, 0.00
219.00, -219.00, 209.00, -0.20, 0.19, -0.23, 15.50, 4.05, 51.29, 46.23, -59.51, 0.00, 0.10, 0.01, 60.74, 6.66, -47.09, -0.00, 0.00, -0.00, 6.84, 19.22, -3.94, 0.05, 0.01, 0.02
-255.00, 252.00, -255.00, -0.03, -0.08, -0.10, 15.25, 4.02, -14.26, 70.75, -43.23, 0.00, 0.10, 0.01, -72.39, 56.93, -9.07, -0.00, -0.00, 0.00, 0.51, 28.62, -5.18, -0.06, -0.01, -0.02
-65.00, -140.00, -165.00, 0.03, -0.12, -0.19, 15.50, 4.06, 15.10, 47.62, -56.91, -0.00, 0.10, 0.01, -12.61, 14.01, -50.15, 0.00, -0.00, -0.00, -1.07, 22.12, -6.50, -0.00, -0.00, -0.00
65.00, -187.00, -252.00, -0.13, -0.12, 0.08, 15.50, 4.09, 18.99, 44.07, -63.90, 0.00, 0.10, 0.01, -3.03, 4.66, -59.09, -0.00, -0.00, -0.00, -1.75, 14.44, -7.45, 0.00, -0.00, 0.00
-197.00, -186.00, 138.00, 0.18, -0.01, -0.23, 15.63, 4.08, 20.94, 50.89, -57.75, 0.00, 0.10, 0.01, 1.18, 18.53, -47.17, -0.00, -0.00, -0.00, -1.83, 15.66, -8.17, 0.01, 0.00, 0.01
244.00, -32.00, -255.00, 0.00, -0.20, 0.13, 15.38, 4.07, 24.61, 51.32, -56.85, 0.00, 0.10, 0.01, 7.19, 16.91, -41.91, -0.00, -0.00, -0.00, -1.37, 15.81, -8.81, 0.01, 0.00, 0.01
0.00, -255.00, 198.00, -0.22, -0.20, -0.11, 15.38, 4.07, 37.53, 44.93, -61.75, -0.00, 0.11, 0.01, 34.62, 6.90, -53.54, 0.00, 0.00, -0.00, 1.50, 11.42, -8.56, 0.04, 0.01, 0.02
-255.00, -255.00, -176.00, 0.17, -0.01, 0.01, 15.38, 4.04, 8.94, 46.96, -69.19, 0.00, 0.10, 0.01, -26.13, 8.73, -64.78, -0.00, -0.00, 0.00, -2.01, 10.30, -8.58, -0.01, -0.00, -0.00
237.00, -32.00, 32.00, -0.18, -0.15, 0.02, 15.50, 4.07, 37.20, 52.02, -49.01, -0.00, 0.11, 0.01, 32.39, 21.67, -32.43, 0.00, 0.00, -0.00, 0.18, 13.68, -7.92, 0.03, 0.01, 0.01
-244.00, -218.00, 49.00, 0.22, -0.15, -0.11, 15.50, 4.09, 17.17, 50.04, -61.41, -0.00, 0.11, 0.01, -8.36, 16.07, -53.54, 0.00, 0.00, 0.00, -1.07, 14.34, -8.65, 0.00, 0.00, 0.01
255.00, -217.00, -175.00, -0.16, 0.03, 0.10, 15.38, 4.05, 35.36, 43.03, -65.77, 0.00, 0.11, 0.01, 29.31, -0.08, -59.54, -0.00, 0.00, -0.00, 1.37, 7.87, -8.52, 0.03, 0.01, 0.01
-228.00, 65.00, 164.00, 0.23, -0.18, 0.24, 15.63, 4.07, 10.99, 65.07, -42.43, -0.00, 0.10, 0.01, -19.62, 46.46, -17.18, 0.00, -0.00, 0.00, -0.16, 20.24, -7.58, -0.01, -0.00, -0.00
255.00, -244.00, 255.00, -0.19, -0.20, 0.20, 15.63, 4.04, 54.18, 45.35, -62.34, 0.00, 0.10, 0.01, 68.64, 3.45, -48.30, -0.00, 0.00, 0.00, 5.17, 11.35, -4.22, 0.06, 0.01, 0.03
-253.00, -255.00, 255.00, -0.15, 0.06, -0.01, 15.00, 4.00, 26.64, 50.57, -63.53, -0.00, 0.10, 0.01, 11.23, 15.19, -50.09, 0.00, -0.00, -0.00, 5.02, 12.59, -4.99, 0.01, -0.00, 0.01
-220.00, 112.00, -32.00, 0.09, 0.00, 0.23, 15.38, 4.06, 2.28, 64.37, -41.45, 0.00, 0.10, 0.01, -38.85, 47.07, -17.78, -0.00, -0.01, -0.00, 1.70, 23.06, -4.66, -0.03, -0.01, -0.01
152.00, 0.00, 255.00, -0.22, 0.23, 0.02, 15.63, 4.10, 39.33, 57.10, -44.93, 0.00, 0.10, 0.01, 38.48, 30.60, -20.83, -0.00, -0.00, 0.00, 4.25, 24.42, -4.23, 0.03, 0.00, 0.02
-255.00, 255.00, 48.00, 0.25, 0.18, 0.14, 15.25, 4.07, -1.70, 72.83, -36.20, -0.01, 0.10, 0.01, -46.84, 63.34, 0.68, 0.01, -0.00, -0.00, -0.83, 35.28, -5.45, -0.03, -0.01, -0.02
255.00, 244.00, 208.00, -0.20, 0.09, -0.16, 15.25, 4.03, 33.44, 68.17, -36.54, 0.00, 0.10, 0.01, 26.44, 51.38, 4.07, -0.00, -0.00, -0.00, 2.10, 39.23, -4.02, 0.02, 0.00, 0.01
-255.00, 152.00, -229.00, 0.18, -0.10, -0.07, 15.50, 4.03, -9.89, 64.75, -45.60, 0.01, 0.10, 0.01, -63.25, 46.85, -19.36, -0.01, -0.00, -0.00, -4.47, 38.19, -5.14, -0.05, -0.01, -0.02
245.00, -165.00, -126.00, 0.04, -0.18, 0.17, 15.75, 4.05, 34.81, 46.02, -60.55, 0.00, 0.10, 0.01, 28.49, 6.75, -52.20, -0.00, -0.00, -0.00, -1.76, 23.99, -5.61, 0.03, 0.00, 0.01
81.00, -245.00, 236.00, -0.24, 0.18, -0.06, 15.75, 4.06, 45.22, 45.92, -60.64, -0.00, 0.10, 0.01, 48.51, 7.39, -50.11, -0.00, -0.00, -0.00, 2.23, 15.69, -4.57, 0.05, 0.01, 0.02
-255.00, 244.00, -111.00, 0.24, -0.06, -0.06, 15.50, 4.05, -9.30, 71.62, -39.39, 0.00, 0.10, 0.01, -61.16, 60.03, -5.67, -0.00, -0.00, -0.00, -2.59, 28.28, -5.61, -0.05, -0.01, -0.02
255.00, -111.00, -111.00, 0.01, 0.05, -0.05, 15.38, 4.06, 33.75, 46.20, -57.31, -0.00, 0.11, 0.01, 26.64, 9.79, -46.09, 0.00, 0.00, 0.00, -0.43, 20.12, -6.13, 0.03, 0.01, 0.02
32.00, 96.00, -96.00, -0.11, 0.22, 0.05, 15.50, 4.12, 14.69, 60.23, -42.12, -0.00, 0.10, 0.01, -13.98, 39.02, -21.95, 0.00, 0.00, -0.00, -1.63, 26.14, -6.28, -0.00, -0.00, -0.00
-174.00, 255.00, 95.00, -0.08, -0.08, 0.16, 15.50, 4.10, 4.44, 72.33, -34.39, 0.00, 0.10, 0.01, -33.95, 62.38, 2.20, -0.00, -0.00, -0.00, -4.68, 36.92, -6.46, -0.02, -0.01, -0.01
-137.00, -137.00, 226.00, 0.08, 0.06, -0.10, 15.50, 4.08, 27.62, 53.58, -55.89, 0.00, 0.10, 0.01, 13.58, 23.34, -40.69, -0.00, -0.00, -0.00, -3.19, 30.90, -8.14, 0.02, 0.00, 0.01
138.00, 110.00, -163.00, -0.19, -0.03, -0.13, 15.63, 4.10, 16.97, 58.30, -44.01, 0.00, 0.11, 0.01, -8.84, 35.22, -22.32, -0.00, 0.00, 0.00, -3.78, 32.14, -8.83, -0.00, 0.00, 0.00
-251.00, -65.00, -197.00, 0.05, 0.22, -0.24, 15.38, 4.09, 0.44, 55.77, -56.87, -0.00, 0.11, 0.01, -42.82, 27.41, -43.92, 0.00, 0.00, -0.00, -7.66, 28.55, -9.55, -0.02, -0.00, -0.01
96.00, 255.00, -255.00, -0.08, -0.21, 0.19, 15.63, 4.05, 5.23, 67.32, -39.78, -0.00, 0.10, 0.01, -32.80, 50.08, -7.28, 0.00, 0.00, -0.00, -9.71, 34.99, -9.20, -0.02, -0.00, -0.01
-139.00, -255.00, 252.00, -0.19, 0.04, 0.07, 15.50, 4.04, 32.08, 48.63, -62.51, 0.00, 0.10, 0.01, 23.29, 11.93, -51.34, -0.00, -0.00, -0.00, -6.68, 24.36, -9.97, 0.03, 0.00, 0.01
-253.00, 81.00, 125.00, -0.19, 0.05, 0.13, 15.25, 4.06, 7.76, 64.85, -42.55, 0.00, 0.10, 0.01, -26.73, 47.23, -17.04, -0.00, -0.00, -0.00, -8.27, 31.51, -9.67, -0.01, -0.00, -0.01
-252.00, 96.00, 198.00, 0.23, 0.12, -0.17, 15.75, 4.07, 9.70, 66.79, -42.74, 0.00, 0.10, 0.01, -22.02, 49.98, -13.76, -0.00, -0.00, -0.00, -9.48, 37.26, -9.51, -0.01, -0.01, -0.01
255.00, 187.00, -236.00, 0.03, 0.08, -0.20, 15.50, 4.04, 16.79, 61.90, -45.40, 0.00, 0.10, 0.01, -8.14, 38.60, -16.23, -0.00, -0.00, -0.00, -9.38, 37.64, -9.94, 0.00, -0.00, -0.00
65.00, 139.00, -255.00, -0.18, -0.17, 0.05, 15.50, 4.06, 6.78, 62.26, -45.95, -0.00, 0.11, 0.00, -28.63, 39.99, -22.90, 0.00, 0.00, -0.00, -11.35, 37.77, -10.80, -0.01, 0.00, -0.01
-244.00, -236.00, 96.00, 0.06, 0.17, -0.08, 15.50, 4.06, 18.93, 49.66, -62.82, 0.00, 0.10, 0.01, -3.75, 14.96, -54.61, -0.00, -0.00, -0.00, -10.71, 27.28, -12.82, 0.01, -0.00, 0.00
111.00, 236.00, -138.00, -0.22, 0.09, -0.14, 16.13, 4.07, 10.48, 66.66, -38.32, 0.00, 0.10, 0.01, -20.76, 50.40, -7.47, -0.00, 0.00, -0.00, -11.23, 34.59, -11.86, -0.01, -0.00, -0.00
-255.00, 151.00, -208.00, 0.16, -0.08, 0.08, 15.25, 4.06, -9.02, 67.07, -46.81, -0.00, 0.10, 0.01, -61.79, 49.63, -20.50, 0.00, -0.00, -0.00, -16.01, 37.41, -11.70, -0.03, -0.01, -0.02
227.00, -138.00, 138.00, -0.18, -0.10, 0.11, 15.50, 4.07, 42.37, 48.49, -56.59, 0.00, 0.10, 0.01, 46.16, 13.12, -42.91, -0.00, -0.00, -0.00, -10.46, 25.52, -10.17, 0.05, 0.01, 0.02
-244.00, -164.00, 176.00, 0.23, 0.03, 0.11, 15.38, 4.07, 18.93, 53.96, -58.08, 0.00, 0.10, 0.01, -2.68, 23.37, -44.24, -0.00, -0.00, -0.00, -9.84, 24.07, -11.40, 0.01, -0.00, 0.01
255.00, 65.00, 176.00, -0.16, 0.09, -0.14, 15.50, 4.07, 39.01, 57.91, -42.93, -0.00, 0.11, 0.01, 37.91, 32.57, -16.44, 0.00, 0.00, -0.00, -6.16, 25.29, -9.99, 0.04, 0.01, 0.02
-227.00, 151.00, -208.00, 0.18, 0.00, -0.20, 15.50, 4.06, -5.93, 64.98, -45.09, 0.00, 0.10, 0.01, -57.06, 47.22, -19.45, -0.00, -0.00, -0.00, -10.27, 31.00, -9.63, -0.04, -0.01, -0.01
244.00, 0.00, -255.00, -0.03, -0.02, -0.19, 15.88, 4.06, 22.61, 52.72, -54.18, 0.00, 0.11, 0.01, 3.87, 19.98, -37.57, -0.00, 0.00, -0.00, -9.19, 26.44, -10.84, 0.01, 0.01, 0.01
-65.00, -49.00, -252.00, 0.06, -0.03, 0.05, 15.63, 4.08, 6.80, 53.41, -54.27, 0.00, 0.10, 0.01, -28.51, 23.00, -42.96, -0.00, -0.01, -0.00, -10.99, 24.33, -11.78, -0.01, -0.01, -0.00
110.00, -65.00, 96.00, -0.07, 0.07, 0.06, 15.50, 4.13, 35.53, 52.09, -47.05, 0.00, 0.10, 0.01, 27.55, 22.82, -32.74, -0.00, -0.00, -0.00, -7.93, 22.76, -11.50, 0.03, 0.00, 0.01
-123.00, 123.00, 109.00, 0.17, 0.01, -0.24, 15.50, 4.13, 12.00, 66.09, -39.04, 0.01, 0.10, 0.01, -17.55, 49.46, -13.05, -0.01, -0.00, -0.00, -8.48, 31.29, -10.74, -0.01, -0.00, -0.00
234.00, 31.00, -255.00, 0.22, 0.08, -0.06, 15.50, 4.09, 21.94, 54.21, -52.98, 0.00, 0.10, 0.01, 1.27, 23.30, -34.67, -0.00, -0.00, -0.00, -7.77, 27.99, -11.91, 0.01, 0.00, 0.00
255.00, 138.00, -110.00, -0.16, 0.02, 0.04, 15.38, 4.07, 25.07, 61.21, -44.43, 0.00, 0.10, 0.01, 7.70, 37.69, -18.62, -0.00, -0.00, -0.00, -6.39, 30.93, -11.67, 0.01, 0.00, 0.00
-227.00, 49.00, 81.00, -0.08, -0.06, -0.20, 15.63, 4.10, 7.63, 61.79, -44.37, 0.00, 0.11, 0.01, -26.20, 42.21, -22.54, -0.00, 0.00, -0.00, -8.26, 34.22, -11.90, -0.01, 0.00, -0.01
-138.00, -110.00, -255.00, -0.21, -0.11, -0.02, 15.25, 4.09, 5.13, 51.10, -60.27, 0.00, 0.10, 0.01, -32.20, 17.99, -51.46, -0.00, 0.00, -0.00, -10.80, 26.32, -13.17, -0.02, -0.00, -0.00
-255.00, -175.00, -48.00, -0.13, 0.19, 0.24, 15.50, 4.07, 9.46, 51.08, -61.02, 0.00, 0.11, 0.01, -22.78, 18.89, -52.54, -0.00, 0.00, -0.00, -12.09, 22.47, -14.40, -0.00, -0.00, -0.00
-198.00, 251.00, 255.00, -0.17, 0.07, -0.05, 15.13, 4.04, 10.83, 74.10, -35.05, -0.00, 0.10, 0.01, -21.15, 63.90, 6.82, 0.00, -0.00, -0.00, -11.81, 35.30, -12.53, -0.01, -0.00, -0.00
-237.00, 125.00, -96.00, -0.12, 0.18, 0.08, 15.63, 4.05, -2.73, 63.81, -42.71, 0.00, 0.10, 0.01, -48.27, 46.61, -18.45, -0.00, -0.01, 0.00, -15.27, 37.74, -12.49, -0.03, -0.01, -0.01
-188.00, 245.00, 139.00, -0.04, -0.01, 0.14, 15.75, 4.07, 5.93, 72.17, -34.76, -0.00, 0.10, 0.01, -30.66, 61.81, 2.14, 0.00, -0.00, -0.00, -16.29, 45.05, -10.86, -0.01, -0.01, -0.01
-81.00, -32.00, 208.00, -0.15, -0.22, -0.02, 15.25, 4.09, 24.55, 56.80, -45.54, 0.00, 0.10, 0.01, 8.73, 31.75, -26.21, -0.00, -0.00, -0.00, -13.94, 39.96, -12.02, 0.02, 0.00, 0.01
-217.00, -255.00, -48.00, 0.04, 0.02, -0.22, 15.50, 4.09, 14.64, 46.07, -64.53, 0.00, 0.10, 0.01, -12.52, 8.95, -60.40, -0.00, -0.00, -0.00, -13.81, 25.41, -13.80, 0.00, -0.00, 0.00
80.00, 48.00, -255.00, -0.07, -0.01, -0.22, 15.63, 4.08, 11.96, 56.53, -49.33, -0.00, 0.10, 0.01, -18.86, 29.49, -32.18, 0.00, -0.00, -0.00, -14.21, 26.55, -14.40, 0.00, -0.00, -0.00
-124.00, -32.00, -255.00, -0.20, 0.12, -0.24, 15.75, 4.10, 1.30, 54.00, -54.03, 0.00, 0.10, 0.01, -38.43, 24.96, -41.41, -0.00, -0.00, 0.00, -16.35, 25.03, -14.99, -0.02, -0.00, -0.00
-255.00, 186.00, -255.00, 0.11, 0.01, 0.04, 15.63, 4.05, -12.69, 67.38, -46.29, 0.00, 0.10, 0.01, -68.78, 50.62, -17.34, -0.00, -0.00, 0.00, -20.14, 32.13, -13.78, -0.04, -0.01, -0.01
176.00, 32.00, 81.00, -0.10, 0.02, -0.09, 15.25, 4.08, 32.93, 56.15, -43.66, 0.00, 0.10, 0.01, 23.99, 30.83, -23.40, -0.00, -0.00, -0.00, -16.26, 30.53, -13.20, 0.03, 0.00, 0.01
-163.00, 48.00, -151.00, 0.01, -0.20, -0.10, 15.38, 4.12, 1.96, 60.65, -46.30, 0.00, 0.10, 0.01, -39.00, 38.16, -28.55, -0.00, -0.00, -0.00, -18.23, 32.41, -13.58, -0.02, -0.01, -0.01
32.00, -255.00, -162.00, -0.01, -0.16, 0.00, 16.00, 4.10, 24.63, 42.05, -66.88, 0.00, 0.11, 0.01, 7.11, 0.87, -65.46, -0.00, 0.00, -0.00, -15.18, 17.45, -14.03, 0.02, 0.01, 0.01
-32.00, -226.00, 0.00, -0.03, 0.05, 0.03, 15.63, 4.10, 26.67, 44.27, -61.20, 0.00, 0.10, 0.01, 11.76, 7.39, -57.19, -0.00, -0.00, -0.00, -12.44, 12.70, -14.47, 0.02, 0.00, 0.01
-64.00, 95.00, 64.00, 0.00, 0.02, -0.20, 15.38, 4.13, 16.09, 60.00, -39.10, -0.00, 0.11, 0.01, -10.87, 41.23, -16.59, -0.00, 0.00, -0.00, -11.90, 22.03, -13.34, 0.00, 0.00, 0.00
0.00, 48.00, -255.00, -0.23, 0.13, 0.14, 15.25, 4.13, 6.46, 56.46, -49.27, 0.00, 0.10, 0.01, -29.42, 30.43, -32.41, -0.00, -0.00, -0.00, -13.26, 24.59, -13.56, -0.01, -0.00, -0.00
-255.00, 196.00, 206.00, 0.01, 0.05, -0.05, 15.38, 4.07, 6.15, 71.09, -37.88, 0.00, 0.11, 0.01, -29.43, 59.18, -1.23, -0.00, 0.00, -0.00, -13.89, 35.42, -12.09, -0.01, -0.00, -0.01
32.00, 96.00, -96.00, 0.01, 0.14, 0.23, 15.50, 4.10, 13.04, 59.32, -41.83, 0.01, 0.10, 0.01, -15.58, 38.08, -21.71, -0.01, -0.01, -0.00, -14.05, 36.16, -12.64, -0.01, -0.01, -0.00
32.00, 207.00, 255.00, -0.04, 0.04, -0.08, 15.75, 4.10, 24.83, 67.67, -33.84, 0.00, 0.10, 0.01, 8.10, 53.41, 3.36, -0.00, -0.00, 0.00, -11.06, 40.91, -10.41, 0.01, -0.00, 0.01
-80.00, 80.00, -137.00, 0.23, -0.19, 0.00, 15.25, 4.11, 3.08, 61.05, -44.72, 0.00, 0.10, 0.01, -33.54, 39.64, -25.73, -0.00, -0.00, -0.00, -13.50, 39.48, -11.59, -0.02, -0.00, -0.01
255.00, -250.00, 0.00, 0.04, -0.22, 0.02, 15.38, 4.09, 44.24, 41.96, -64.54, 0.00, 0.11, 0.01, 47.65, -1.11, -58.54, -0.00, 0.00, -0.00, -7.44, 19.77, -8.66, 0.05, 0.01, 0.02
80.00, -255.00, 48.00, 0.05, 0.08, 0.02, 15.38, 4.08, 36.98, 42.74, -62.63, 0.00, 0.10, 0.01, 31.95, 3.34, -58.43, -0.00, 0.00, -0.00, -3.85, 11.98, -8.21, 0.04, 0.01, 0.02
96.00, 138.00, 48.00, -0.13, 0.03, 0.17, 15.63, 4.12, 21.18, 63.46, -39.04, -0.00, 0.10, 0.01, 1.44, 44.80, -13.53, 0.00, -0.00, 0.00, -3.44, 22.39, -7.37, 0.01, -0.00, 0.01
-196.00, 64.00, 234.00, 0.08, 0.00, -0.13, 15.50, 4.10, 16.79, 63.64, -41.71, 0.00, 0.11, 0.01, -8.71, 44.64, -14.31, -0.00, 0.00, 0.00, -3.87, 29.47, -7.18, -0.00, 0.00, 0.00
137.00, 0.00, -197.00, 0.18, 0.23, 0.09, 15.63, 4.10, 18.33, 52.79, -51.29, 0.01, 0.11, 0.01, -4.43, 23.46, -36.53, -0.01, 0.00, -0.00, -4.11, 26.82, -8.49, -0.00, 0.00, 0.00
243.00, 255.00, 150.00, -0.19, -0.06, 0.01, 15.50, 4.07, 29.38, 68.14, -36.12, -0.00, 0.10, 0.01, 18.79, 52.28, 3.44, 0.00, -0.00, 0.00, -1.77, 34.02, -6.99, 0.02, 0.00, 0.01
-251.00, -110.00, 32.00, 0.14, -0.04, -0.17, 15.75, 4.07, 10.25, 54.74, -55.61, 0.00, 0.11, 0.01, -20.55, 26.70, -43.05, -0.00, 0.00, -0.00, -3.89, 30.16, -8.68, -0.01, -0.00, -0.00
208.00, -81.00, -236.00, 0.15, 0.14, -0.03, 15.63, 4.08, 24.48, 49.66, -59.15, 0.00, 0.10, 0.01, 7.73, 13.87, -47.57, -0.00, -0.00, -0.00, -3.09, 23.08, -10.01, 0.01, -0.00, 0.01
218.00, 208.00, -65.00, 0.03, -0.18, -0.06, 15.38, 4.07, 21.76, 64.43, -38.53, 0.00, 0.10, 0.01, 1.40, 45.77, -7.77, -0.00, 0.00, -0.00, -2.65, 30.17, -9.25, 0.00, 0.00, 0.00
65.00, -244.00, -110.00, -0.10, -0.04, 0.05, 15.50, 4.09, 28.90, 42.09, -64.00, -0.00, 0.10, 0.01, 15.31, 1.97, -61.58, 0.00, 0.00, -0.00, -1.26, 17.21, -9.87, 0.02, 0.00, 0.01
-163.00, -80.00, 96.00, -0.07, 0.14, -0.13, 15.50, 4.11, 18.94, 54.05, -49.62, 0.00, 0.10, 0.01, -4.98, 27.04, -35.75, -0.00, -0.00, -0.00, -1.76, 20.45, -10.26, 0.00, -0.00, 0.00
-124.00, 207.00, -197.00, -0.18, 0.22, 0.04, 15.75, 4.10, -3.43, 66.12, -40.06, 0.00, 0.10, 0.01, -50.52, 50.33, -11.63, -0.00, -0.01, -0.00, -5.48, 28.99, -9.80, -0.04, -0.01, -0.02
-243.00, 255.00, 80.00, -0.04, -0.14, 0.10, 15.75, 4.06, 0.70, 73.46, -35.11, 0.00, 0.10, 0.01, -42.15, 63.90, 2.04, -0.00, -0.01, -0.00, -8.84, 39.14, -9.42, -0.03, -0.01, -0.01
-81.00, -209.00, 164.00, 0.18, 0.22, -0.16, 15.38, 4.07, 31.03, 49.23, -57.92, 0.00, 0.10, 0.01, 20.14, 14.57, -48.81, -0.00, -0.00, -0.00, -6.19, 28.09, -10.65, 0.03, 0.00, 0.01
244.00, 255.00, -227.00, -0.03, -0.06, 0.02, 15.63, 4.04, 14.70, 65.62, -42.27, 0.00, 0.11, 0.01, -13.06, 45.93, -7.81, -0.00, 0.00, 0.00, -6.64, 33.70, -10.10, -0.01, 0.00, 0.00
-65.00, -111.00, 49.00, -0.17, -0.12, 0.24, 15.50, 4.09, 22.16, 50.23, -52.29, 0.00, 0.10, 0.01, 3.15, 20.42, -42.02, -0.00, -0.00, 0.00, -5.93, 28.03, -11.66, 0.01, -0.00, 0.01
-235.00, -186.00, 255.00, -0.07, -0.17, -0.06, 15.63, 4.08, 24.17, 52.35, -57.99, 0.00, 0.10, 0.01, 7.57, 20.29, -42.10, -0.00, 0.00, -0.00, -4.88, 24.50, -12.79, 0.01, 0.00, 0.01
-124.00, -236.00, -110.00, -0.20, 0.16, -0.21, 15.38, 4.06, 19.10, 44.81, -63.58, -0.00, 0.10, 0.01, -6.05, 7.27, -60.44, 0.00, -0.00, -0.00, -5.32, 16.60, -13.88, 0.01, -0.00, 0.00
-255.00, 228.00, -255.00, 0.15, 0.25, 0.10, 15.25, 4.04, -13.88, 70.40, -45.28, 0.01, 0.11, 0.01, -71.42, 55.56, -13.03, -0.01, 0.00, -0.00, -9.77, 27.83, -12.58, -0.05, -0.01, -0.02
219.00, 255.00, 165.00, -0.13, 0.00, -0.03, 15.50, 4.03, 28.27, 68.61, -35.36, 0.00, 0.10, 0.01, 16.73, 53.19, 3.78, -0.00, -0.00, -0.00, -6.72, 34.83, -10.40, 0.02, 0.00, 0.01
-199.00, 0.00, -65.00, 0.12, 0.04, 0.11, 15.50, 4.09, 5.92, 58.02, -47.73, 0.00, 0.10, 0.01, -30.97, 34.49, -31.79, -0.00, -0.00, -0.00, -9.17, 33.71, -11.47, -0.02, -0.00, -0.01
186.00, 80.00, 175.00, 0.19, -0.07, 0.19, 15.63, 4.11, 33.10, 58.20, -41.27, 0.00, 0.11, 0.01, 27.33, 35.30, -15.01, -0.00, 0.00, -0.00, -5.92, 33.12, -10.72, 0.03, 0.01, 0.01
250.00, -124.00, 250.00, 0.07, -0.20, 0.15, 15.25, 4.06, 49.94, 51.40, -54.49, 0.00, 0.11, 0.01, 59.69, 16.15, -35.37, -0.00, 0.00, 0.00, -0.66, 23.76, -8.52, 0.05, 0.01, 0.02
125.00, -255.00, 218.00, 0.09, 0.09, 0.10, 15.50, 4.04, 46.20, 45.12, -61.88, 0.00, 0.10, 0.01, 51.51, 5.48, -52.02, -0.00, -0.00, 0.00, 3.65, 14.62, -7.03, 0.04, 0.01, 0.02
152.00, 152.00, 164.00, -0.09, 0.22, 0.14, 15.38, 4.07, 30.53, 62.53, -37.12, 0.00, 0.10, 0.01, 18.97, 43.87, -6.89, -0.00, -0.00, -0.00, 4.46, 23.60, -6.25, 0.01, 0.00, 0.01
-151.00, 255.00, 208.00, 0.10, -0.23, -0.02, 15.63, 4.07, 9.84, 73.09, -34.52, -0.00, 0.10, 0.01, -21.77, 62.86, 5.17, 0.00, 0.00, 0.00, 1.64, 35.49, -6.36, -0.02, -0.00, -0.01
164.00, -255.00, -49.00, -0.11, 0.15, 0.01, 15.50, 4.06, 37.65, 41.71, -63.68, 0.01, 0.10, 0.01, 33.15, 0.20, -60.04, -0.01, -0.00, -0.00, 4.08, 19.00, -6.21, 0.02, 0.00, 0.01
-176.00, 218.00, 32.00, 0.11, 0.23, 0.02, 15.50, 4.09, 0.91, 69.44, -35.12, 0.00, 0.11, 0.01, -39.08, 57.41, -3.17, -0.00, 0.00, -0.00, 0.31, 30.27, -6.56, -0.03, -0.00, -0.02
175.00, 255.00, 48.00, -0.09, 0.25, 0.16, 15.63, 4.08, 23.03, 68.01, -34.35, 0.00, 0.10, 0.01, 3.52, 53.42, 1.34, -0.00, -0.00, -0.00, 0.63, 37.36, -5.74, -0.00, -0.00, -0.00
-151.00, 255.00, 227.00, -0.11, 0.14, -0.02, 15.25, 4.05, 11.52, 73.55, -33.37, 0.00, 0.10, 0.01, -19.20, 63.23, 7.06, -0.00, -0.01, -0.00, -1.75, 45.08, -5.23, -0.01, -0.01, -0.01
-176.00, 209.00, -49.00, 0.05, 0.08, 0.16, 15.63, 4.07, -0.69, 70.20, -37.90, -0.00, 0.11, 0.01, -43.99, 57.01, -8.00, 0.00, 0.00, -0.00, -6.97, 47.10, -6.14, -0.03, -0.00, -0.01
96.00, 138.00, 227.00, -0.08, 0.22, -0.24, 15.75, 4.09, 29.41, 64.26, -37.21, 0.00, 0.11, 0.01, 18.02, 45.83, -6.20, -0.00, 0.00, -0.00, -4.05, 46.00, -5.58, 0.02, 0.01, 0.01
-138.00, 255.00, -255.00, -0.11, -0.02, 0.04, 15.50, 4.06, -7.42, 69.72, -41.74, 0.00, 0.11, 0.01, -59.35, 55.02, -9.13, -0.00, 0.00, 0.00, -10.53, 45.83, -6.72, -0.04, -0.01, -0.02
-176.00, -49.00, 81.00, 0.21, 0.12, -0.17, 15.63, 4.09, 15.96, 56.52, -48.63, -0.00, 0.11, 0.01, -10.70, 31.26, -33.32, 0.00, 0.00, -0.00, -10.80, 39.96, -9.07, 0.01, 0.00, 0.00
255.00, 186.00, -235.00, 0.25, 0.11, -0.03, 15.50, 4.07, 18.77, 61.22, -45.12, 0.00, 0.10, 0.01, -6.12, 37.93, -15.86, -0.00, -0.00, -0.00, -10.40, 39.24, -9.60, 0.00, -0.00, 0.00
255.00, 176.00, -65.00, -0.07, 0.18, 0.08, 15.63, 4.05, 24.83, 61.49, -39.92, 0.01, 0.11, 0.01, 7.98, 40.33, -11.05, -0.01, 0.00, -0.00, -8.56, 39.32, -9.35, 0.01, 0.01, 0.00
-125.00, 245.00, 139.00, 0.24, 0.07, 0.21, 15.50, 4.07, 9.56, 71.50, -32.71, -0.00, 0.10, 0.01, -23.36, 60.59, 3.40, 0.00, -0.00, 0.00, -9.91, 45.70, -8.21, -0.01, -0.01, -0.00
255.00, 125.00, 255.00, 0.10, 0.12, 0.11, 15.38, 4.05, 39.89, 62.48, -41.01, -0.00, 0.10, 0.01, 39.83, 39.98, -7.45, 0.00, -0.01, -0.00, -4.73, 41.34, -6.84, 0.04, 0.00, 0.02
164.00, 188.00, 176.00, -0.22, -0.20, -0.24, 15.63, 4.05, 31.01, 64.95, -35.71, 0.00, 0.10, 0.01, 19.26, 47.73, -2.34, -0.00, -0.00, 0.00, -1.99, 42.60, -5.82, 0.02, 0.00, 0.01
-255.00, -255.00, -255.00, 0.03, 0.13, 0.21, 15.38, 4.04, 5.09, 46.81, -70.84, -0.00, 0.11, 0.01, -33.39, 7.13, -66.26, 0.00, 0.00, -0.00, -5.85, 24.99, -6.48, -0.01, -0.00, -0.00
65.00, 199.00, 255.00, 0.18, 0.04, 0.13, 15.50, 4.04, 26.13, 68.58, -34.84, 0.00, 0.10, 0.01, 11.53, 53.30, 1.42, -0.00, -0.00, -0.00, -4.00, 33.39, -5.42, 0.01, -0.00, 0.01
245.00, 81.00, 199.00, 0.13, -0.05, -0.09, 15.38, 4.07, 40.59, 60.22, -42.14, 0.00, 0.10, 0.01, 39.25, 35.95, -13.95, -0.00, -0.00, -0.00, -0.30, 32.48, -4.72, 0.03, 0.00, 0.01
198.00, -96.00, -151.00, 0.13, -0.17, -0.21, 15.50, 4.08, 28.71, 47.81, -56.61, -0.00, 0.10, 0.01, 15.74, 12.95, -45.96, 0.00, -0.00, -0.00, 0.75, 24.10, -6.05, 0.02, 0.00, 0.01
197.00, -235.00, -255.00, -0.21, 0.14, 0.09, 15.88, 4.05, 28.54, 42.03, -69.18, -0.00, 0.11, 0.01, 16.12, -2.24, -64.79, 0.00, 0.00, -0.00, 1.60, 12.15, -6.45, 0.02, 0.00, 0.01
-255.00, 209.00, 152.00, 0.11, 0.01, 0.15, 15.38, 4.04, 3.64, 71.53, -37.23, 0.00, 0.10, 0.01, -34.78, 60.11, -1.69, -0.00, -0.00, -0.00, -1.17, 26.79, -6.66, -0.02, -0.01, -0.01
177.00, 32.00, 219.00, -0.15, -0.21, 0.21, 15.25, 4.07, 36.36, 58.01, -44.11, 0.01, 0.10, 0.01, 33.85, 32.81, -19.35, -0.01, -0.00, -0.00, 1.51, 27.68, -6.24, 0.02, 0.01, 0.01
-218.00, -255.00, 255.00, 0.23, -0.05, -0.04, 15.25, 4.05, 28.62, 50.22, -62.70, 0.00, 0.10, 0.01, 15.38, 14.25, -50.09, -0.00, 0.00, 0.00, 2.33, 21.53, -7.55, 0.01, 0.00, 0.01
255.00, -96.00, -81.00, -0.06, 0.14, 0.24, 15.63, 4.05, 35.14, 48.42, -55.29, 0.00, 0.10, 0.01, 28.76, 13.21, -43.18, -0.00, 0.00, -0.00, 4.14, 17.58, -7.99, 0.03, 0.01, 0.01
-111.00, 209.00, 255.00, 0.09, 0.20, 0.17, 15.38, 4.07, 14.69, 69.75, -34.55, -0.00, 0.10, 0.01, -10.70, 56.93, 2.92, 0.00, -0.00, -0.00, 2.66, 29.72, -7.56, -0.01, -0.00, -0.01
151.00, 255.00, 236.00, -0.24, 0.18, -0.21, 15.63, 4.04, 30.05, 69.89, -33.24, -0.00, 0.11, 0.01, 17.69, 55.90, 7.74, 0.00, 0.00, 0.00, 4.14, 37.29, -6.07, 0.01, 0.01, 0.01
-255.00, 245.00, -255.00, 0.11, -0.22, 0.15, 15.38, 4.02, -13.99, 70.58, -44.55, 0.00, 0.10, 0.01, -71.85, 56.43, -11.01, -0.00, -0.00, -0.00, -3.77, 39.28, -7.20, -0.06, -0.01, -0.02
177.00, -255.00, 220.00, 0.21, -0.05, 0.16, 15.38, 4.02, 50.41, 44.37, -62.88, 0.00, 0.10, 0.01, 58.69, 3.90, -52.19, -0.00, -0.00, -0.00, 1.58, 21.67, -4.76, 0.05, 0.01, 0.02
255.00, -97.00, 229.00, 0.20, -0.05, 0.18, 15.75, 4.04, 47.18, 51.08, -53.27, 0.00, 0.10, 0.01, 54.99, 17.28, -33.68, -0.00, -0.00, -0.00, 5.24, 18.19, -3.62, 0.04, 0.00, 0.02
255.00, -96.00, 245.00, -0.14, 0.23, -0.24, 15.75, 4.04, 47.87, 52.13, -53.61, -0.00, 0.10, 0.01, 56.38, 18.33, -33.32, 0.00, -0.00, -0.00, 8.55, 16.58, -2.58, 0.05, 0.01, 0.02
-209.00, 255.00, -255.00, 0.03, 0.01, 0.09, 15.50, 4.03, -11.59, 70.59, -41.51, 0.00, 0.10, 0.01, -67.35, 56.47, -7.96, -0.00, -0.00, -0.00, 2.59, 27.03, -4.01, -0.05, -0.01, -0.02
65.00, 32.00, 152.00, 0.04, -0.24, -0.21, 15.75, 4.08, 28.62, 58.02, -40.91, 0.00, 0.11, 0.01, 16.27, 34.70, -20.02, -0.00, 0.00, -0.00, 3.50, 29.19, -4.41, 0.01, 0.00, 0.01
80.00, -255.00, -255.00, 0.20, 0.06, -0.15, 15.50, 4.09, 24.20, 42.34, -68.12, -0.00, 0.11, 0.01, 5.40, -1.15, -66.13, 0.00, 0.00, -0.00, 2.80, 15.33, -5.11, 0.01, 0.00, 0.00
255.00, 110.00, -217.00, -0.18, 0.02, -0.04, 15.50, 4.05, 20.48, 57.89, -47.94, 0.00, 0.11, 0.01, -0.54, 31.26, -24.35, -0.00, 0.00, 0.00, 2.33, 20.53, -5.30, 0.00, 0.00, 0.00
-245.00, 49.00, -81.00, 0.01, 0.22, 0.24, 15.75, 4.08, -1.01, 61.15, -46.55, 0.01, 0.11, 0.01, -43.37, 40.44, -26.96, -0.01, 0.00, -0.00, -1.45, 26.06, -5.20, -0.03, -0.00, -0.01
32.00, 255.00, 255.00, -0.07, -0.16, 0.02, 15.63, 4.07, 23.14, 71.16, -32.72, 0.00, 0.11, 0.01, 4.54, 59.02, 8.29, -0.00, 0.00, -0.00, -0.73, 36.06, -4.38, 0.00, 0.00, 0.00
-125.00, -227.00, 49.00, 0.21, 0.08, 0.10, 15.38, 4.08, 22.93, 47.49, -60.44, -0.00, 0.10, 0.01, 4.74, 11.87, -54.90, 0.00, -0.00, -0.00, -0.67, 25.12, -6.18, 0.01, -0.00, 0.00
255.00, 138.00, 163.00, -0.08, 0.12, 0.21, 15.38, 4.08, 36.45, 63.65, -40.47, 0.00, 0.10, 0.01, 31.78, 41.97, -9.46, -0.00, -0.00, -0.00, 1.92, 29.51, -5.29, 0.03, 0.00, 0.01
-138.00, 187.00, 255.00, -0.20, 0.19, 0.01, 15.50, 4.06, 16.54, 70.93, -36.89, 0.00, 0.11, 0.01, -9.56, 57.28, -0.98, -0.00, 0.00, 0.00, 0.61, 38.11, -5.07, -0.01, 0.00, -0.00
-255.00, 252.00, 32.00, -0.19, -0.05, -0.15, 15.38, 4.05, -2.57, 72.90, -36.85, 0.01, 0.10, 0.01, -48.23, 63.10, -0.67, -0.01, 0.00, -0.00, -5.13, 44.13, -5.93, -0.04, -0.01, -0.02
-252.00, -96.00, -218.00, -0.01, 0.05, 0.08, 15.75, 4.05, -0.50, 54.37, -59.63, -0.00, 0.10, 0.01, -43.21, 23.98, -48.24, 0.00, -0.00, -0.00, -9.28, 33.63, -7.67, -0.02, -0.01, -0.01
-32.00, 96.00, 139.00, -0.17, 0.15, -0.18, 15.50, 4.10, 19.29, 60.44, -37.91, 0.00, 0.10, 0.01, -2.20, 41.56, -13.52, -0.00, -0.00, 0.00, -8.58, 36.10, -7.76, 0.00, -0.00, 0.00
-235.00, 217.00, -243.00, -0.01, -0.06, 0.11, 16.00, 4.07, -10.71, 68.28, -43.99, 0.00, 0.11, 0.01, -66.51, 53.05, -13.06, -0.00, 0.00, -0.00, -14.14, 38.90, -8.29, -0.04, -0.01, -0.02
-32.00, -110.00, 176.00, 0.23, -0.21, -0.16, 15.63, 4.08, 30.77, 51.26, -49.44, 0.00, 0.10, 0.01, 19.60, 21.53, -35.61, -0.00, -0.00, 0.00, -11.24, 31.52, -9.27, 0.03, 0.00, 0.01
255.00, -255.00, -227.00, -0.05, 0.10, 0.11, 15.38, 4.06, 34.51, 40.85, -70.18, 0.00, 0.10, 0.01, 27.54, -5.38, -65.55, -0.00, -0.00, 0.00, -7.24, 14.15, -8.04, 0.03, 0.01, 0.02
-96.00, 164.00, 176.00, -0.04, -0.18, -0.10, 15.38, 4.06, 14.73, 67.70, -36.14, 0.00, 0.11, 0.01, -11.63, 52.73, -5.55, -0.01, 0.00, -0.00, -7.16, 26.28, -7.26, -0.00, 0.00, -0.00
-81.00, -244.00, -164.00, 0.06, -0.04, 0.05, 15.75, 4.09, 16.30, 44.27, -65.39, 0.00, 0.11, 0.01, -8.51, 4.95, -63.26, -0.00, 0.00, -0.00, -7.58, 16.43, -8.35, 0.00, 0.00, 0.00
110.00, -80.00, 96.00, -0.12, 0.01, -0.03, 15.13, 4.11, 31.95, 50.41, -50.56, 0.00, 0.10, 0.01, 24.51, 20.36, -36.97, -0.00, -0.00, -0.00, -5.23, 17.13, -8.24, 0.03, 0.01, 0.01
-186.00, 32.00, -64.00, -0.10, 0.20, -0.11, 15.38, 4.13, 6.23, 58.97, -46.10, -0.00, 0.10, 0.01, -31.47, 37.06, -28.43, 0.00, -0.00, -0.00, -7.20, 23.49, -8.05, -0.01, -0.00, -0.01
-162.00, 255.00, -174.00, 0.02, 0.19, 0.01, 15.50, 4.09, -5.26, 70.11, -39.92, -0.00, 0.10, 0.01, -55.30, 57.29, -6.98, 0.00, -0.00, -0.00, -10.92, 33.15, -8.11, -0.03, -0.01, -0.02
48.00, 251.00, 32.00, -0.01, -0.17, -0.13, 15.38, 4.08, 14.43, 69.00, -33.62, 0.00, 0.11, 0.01, -13.43, 56.22, 0.10, -0.00, 0.00, 0.00, -10.72, 40.34, -7.17, -0.00, 0.00, 0.00
-32.00, -235.00, -197.00, -0.06, -0.13, -0.02, 15.38, 4.09, 19.13, 43.70, -65.84, 0.00, 0.11, 0.01, -4.56, 3.82, -63.53, -0.00, 0.00, -0.00, -10.18, 23.23, -8.42, 0.01, 0.00, 0.00
-110.00, -197.00, -48.00, -0.13, -0.08, -0.01, 15.75, 4.10, 17.70, 46.77, -61.01, -0.00, 0.11, 0.01, -5.18, 11.84, -55.98, 0.00, 0.00, -0.00, -9.83, 17.91, -9.70, 0.01, 0.00, 0.01
-197.00, -138.00, -32.00, 0.15, 0.00, -0.14, 15.75, 4.11, 12.57, 52.50, -57.89, -0.00, 0.11, 0.01, -17.04, 21.79, -48.86, 0.00, 0.00, -0.00, -10.55, 18.91, -10.50, 0.00, 0.00, 0.00
217.00, 0.00, -207.00, -0.22, -0.02, 0.21, 15.75, 4.10, 23.34, 53.30, -52.41, 0.00, 0.10, 0.01, 5.08, 22.13, -36.41, -0.00, -0.00, -0.00, -9.36, 19.69, -10.99, 0.02, -0.00, 0.01
-255.00, -48.00, 255.00, -0.02, 0.12, 0.09, 15.63, 4.07, 18.25, 59.22, -50.58, 0.00, 0.10, 0.01, -5.00, 34.88, -27.64, -0.00, -0.00, -0.00, -8.95, 24.69, -10.97, 0.01, 0.00, 0.00
-49.00, 187.00, 151.00, 0.23, 0.10, 0.04, 15.50, 4.08, 15.45, 66.97, -34.49, 0.00, 0.10, 0.01, -10.21, 52.68, -3.19, -0.00, 0.00, 0.00, -8.64, 33.45, -9.86, -0.00, 0.00, 0.00
255.00, 163.00, 80.00, -0.13, -0.15, -0.11, 15.63, 4.09, 31.66, 62.06, -39.67, 0.00, 0.11, 0.01, 22.16, 41.40, -9.24, -0.00, 0.00, -0.00, -5.68, 35.12, -8.93, 0.02, 0.01, 0.01
-197.00, -217.00, -175.00, 0.13, -0.07, -0.11, 15.38, 4.07, 8.42, 48.44, -65.27, 0.00, 0.10, 0.01, -24.65, 11.62, -60.54, -0.00, -0.00, -0.00, -7.98, 23.77, -10.30, -0.01, -0.01, -0.00
198.00, -125.00, -176.00, -0.24, -0.21, -0.05, 15.50, 4.07, 28.81, 45.70, -57.63, 0.00, 0.10, 0.01, 15.86, 8.90, -48.42, -0.00, 0.00, -0.00, -6.05, 17.26, -10.89, 0.02, 0.00, 0.01
-255.00, -255.00, -96.00, 0.13, 0.17, 0.25, 15.63, 4.06, 11.96, 46.43, -66.57, 0.00, 0.11, 0.01, -19.56, 9.29, -61.97, -0.00, 0.00, -0.00, -7.72, 13.52, -11.63, -0.00, 0.00, -0.00
198.00, 236.00, 255.00, -0.19, -0.19, 0.05, 15.75, 4.03, 33.12, 68.59, -36.01, 0.01, 0.10, 0.01, 25.10, 52.68, 4.75, -0.01, -0.00, -0.00, -4.87, 24.65, -9.78, 0.02, 0.01, 0.01
-253.00, -253.00, 97.00, -0.06, 0.05, -0.22, 16.00, 4.04, 18.44, 48.22, -64.57, 0.00, 0.10, 0.01, -4.09, 12.74, -56.88, -0.00, -0.00, -0.00, -5.11, 19.02, -11.12, 0.01, 0.00, 0.00
-111.00, 96.00, -255.00, -0.13, -0.24, -0.04, 15.88, 4.07, 0.48, 60.98, -47.57, 0.00, 0.10, 0.01, -43.66, 38.44, -27.41, -0.00, -0.00, -0.00, -8.03, 24.89, -10.53, -0.03, -0.01, -0.01
-198.00, -255.00, -81.00, 0.21, 0.17, 0.16, 15.75, 4.07, 16.53, 45.94, -65.62, 0.00, 0.10, 0.01, -11.01, 8.33, -62.12, -0.01, -0.00, 0.00, -8.58, 17.10, -11.73, 0.00, -0.00, 0.01
255.00, 236.00, 227.00, 0.00, -0.10, -0.07, 15.63, 4.04, 34.86, 67.42, -36.96, -0.00, 0.10, 0.01, 29.06, 50.22, 3.71, 0.00, -0.00, -0.00, -5.27, 26.10, -9.73, 0.03, 0.00, 0.01
0.00, -165.00, -125.00, -0.16, -0.21, -0.08, 15.88, 4.07, 20.72, 47.06, -60.79, 0.00, 0.10, 0.01, -0.34, 11.97, -55.24, -0.00, -0.00, -0.00, -5.08, 19.60, -11.07, 0.01, 0.00, 0.01
-227.00, -255.00, -138.00, 0.00, 0.09, -0.08, 15.63, 4.08, 11.28, 46.17, -68.05, 0.01, 0.10, 0.01, -20.57, 8.06, -64.36, -0.01, -0.00, -0.00, -7.08, 14.16, -11.80, -0.01, -0.00, 0.00
0.00, 151.00, -138.00, -0.17, -0.16, 0.20, 15.50, 4.09, 8.49, 61.60, -41.01, -0.00, 0.10, 0.01, -26.25, 42.89, -17.33, 0.00, -0.00, 0.00, -8.20, 23.45, -10.97, -0.01, -0.00, -0.00
-235.00, -226.00, 255.00, -0.18, -0.11, 0.16, 15.25, 4.06, 26.12, 51.91, -61.44, 0.01, 0.11, 0.01, 10.93, 17.69, -47.27, -0.01, 0.00, 0.00, -6.61, 20.51, -11.87, 0.01, 0.01, 0.01
-244.00, -176.00, 227.00, 0.25, 0.21, 0.08, 15.63, 4.03, 23.18, 53.67, -58.59, -0.00, 0.10, 0.01, 4.35, 22.44, -43.35, 0.00, -0.00, -0.00, -5.79, 20.74, -12.62, 0.02, -0.00, 0.01
255.00, 255.00, 139.00, -0.18, 0.25, -0.01, 15.38, 4.04, 31.32, 67.89, -35.95, 0.00, 0.10, 0.01, 20.80, 51.59, 3.20, -0.00, -0.00, -0.00, -3.25, 29.47, -10.66, 0.02, 0.00, 0.01
-245.00, 255.00, -32.00, 0.25, -0.21, -0.10, 15.63, 4.04, -4.90, 72.01, -37.14, -0.00, 0.10, 0.01, -52.93, 61.67, -2.05, 0.00, -0.00, 0.00, -7.95, 38.13, -10.47, -0.03, -0.01, -0.02
255.00, -255.00, -164.00, 0.15, -0.10, -0.22, 15.63, 4.04, 36.22, 41.14, -68.11, 0.00, 0.10, 0.01, 31.91, -3.80, -63.47, -0.00, -0.00, -0.00, -4.05, 18.25, -9.14, 0.03, 0.00, 0.02
219.00, -165.00, -255.00, -0.01, 0.19, -0.13, 15.63, 4.03, 27.59, 43.91, -63.29, 0.00, 0.10, 0.01, 13.89, 3.14, -55.34, -0.00, -0.00, 0.00, -2.71, 11.68, -9.67, 0.02, -0.00, 0.01
-32.00, 253.00, -199.00, -0.15, 0.23, -0.05, 15.13, 4.06, 0.26, 68.44, -38.57, 0.00, 0.10, 0.01, -42.92, 53.80, -6.87, -0.00, -0.00, 0.00, -5.20, 24.66, -9.13, -0.03, -0.01, -0.01
-218.00, 255.00, -96.00, 0.02, -0.22, 0.09, 15.38, 4.06, -5.47, 71.65, -38.31, 0.00, 0.10, 0.01, -55.00, 60.41, -4.26, -0.00, 0.00, -0.00, -9.34, 34.74, -9.13, -0.04, -0.01, -0.02
49.00, -255.00, 152.00, -0.20, 0.24, 0.15, 15.38, 4.07, 38.18, 44.88, -62.10, 0.00, 0.10, 0.01, 36.07, 6.28, -55.35, -0.00, -0.00, -0.00, -5.07, 21.16, -8.61, 0.04, 0.01, 0.02
-255.00, 255.00, 218.00, -0.09, -0.14, -0.22, 15.50, 4.04, 4.84, 74.88, -36.33, -0.00, 0.11, 0.01, -32.26, 65.52, 5.42, 0.00, 0.00, -0.00, -7.07, 34.73, -8.40, -0.02, -0.00, -0.01
-152.00, -209.00, -255.00, 0.23, -0.08, -0.02, 15.75, 4.03, 8.92, 47.06, -67.19, 0.00, 0.10, 0.01, -25.14, 8.88, -62.59, -0.00, -0.00, 0.00, -9.23, 22.28, -9.59, -0.01, -0.01, 0.00
255.00, -139.00, -49.00, 0.09, 0.04, 0.06, 15.63, 4.07, 37.84, 47.73, -58.75, 0.00, 0.10, 0.01, 34.72, 10.49, -48.41, -0.00, -0.00, -0.00, -5.48, 16.42, -9.08, 0.04, 0.01, 0.02
151.00, 81.00, 111.00, 0.21, 0.21, -0.07, 15.50, 4.11, 30.23, 59.02, -40.08, 0.00, 0.10, 0.01, 19.20, 36.80, -16.32, -0.00, -0.00, -0.00, -3.71, 22.56, -8.29, 0.02, 0.00, 0.01
255.00, 255.00, -124.00, 0.25, -0.05, 0.02, 15.88, 4.07, 18.81, 66.35, -40.03, -0.00, 0.10, 0.01, -3.70, 48.14, -5.11, 0.00, -0.00, -0.00, -3.59, 30.55, -7.64, 0.00, -0.00, -0.00
255.00, -96.00, 49.00, 0.05, 0.04, 0.12, 15.50, 4.07, 41.84, 48.22, -52.75, 0.00, 0.10, 0.01, 41.53, 14.10, -38.72, -0.00, -0.00, -0.00, -0.11, 22.74, -7.29, 0.04, 0.00, 0.02
96.00, 81.00, 187.00, 0.09, 0.00, 0.24, 15.63, 4.11, 31.63, 61.55, -40.62, 0.00, 0.10, 0.01, 20.81, 40.33, -15.07, -0.00, -0.00, -0.00, 1.44, 27.97, -6.79, 0.02, 0.00, 0.01
150.00, 0.00, 255.00, 0.14, -0.18, -0.11, 15.38, 4.10, 39.96, 57.18, -44.83, 0.00, 0.10, 0.01, 39.00, 30.73, -20.69, -0.00, -0.00, -0.00, 4.30, 27.56, -6.36, 0.03, 0.01, 0.01
207.00, -243.00, -175.00, 0.18, 0.17, -0.05, 15.63, 4.07, 34.00, 41.38, -66.78, 0.00, 0.10, 0.01, 26.03, -2.11, -62.70, -0.00, -0.01, -0.00, 5.63, 13.97, -6.53, 0.02, -0.00, 0.01
244.00, 236.00, -96.00, 0.16, -0.08, 0.24, 15.13, 4.05, 21.35, 65.58, -39.75, 0.00, 0.11, 0.01, 0.09, 47.17, -6.53, -0.00, 0.00, 0.00, 4.87, 24.39, -6.09, -0.00, 0.00, 0.00
228.00, -139.00, 255.00, -0.11, -0.07, -0.07, 15.50, 4.05, 47.76, 49.59, -56.65, 0.00, 0.10, 0.01, 56.83, 14.11, -38.51, -0.00, -0.00, -0.00, 8.58, 18.52, -4.99, 0.04, 0.00, 0.02
-176.00, -125.00, -125.00, 0.17, 0.24, 0.24, 15.50, 4.07, 10.26, 51.67, -59.50, 0.00, 0.10, 0.01, -22.81, 20.46, -50.85, -0.00, -0.01, -0.00, 5.09, 18.56, -5.37, -0.02, -0.01, -0.01
236.00, 255.00, 255.00, 0.12, -0.02, -0.17, 15.63, 4.04, 33.97, 69.01, -35.85, 0.00, 0.10, 0.01, 27.64, 53.12, 7.38, -0.00, 0.00, -0.00, 6.59, 28.70, -4.44, 0.02, 0.01, 0.01
188.00, -49.00, -237.00, 0.01, 0.20, 0.00, 15.50, 4.05, 22.03, 50.29, -55.32, 0.00, 0.10, 0.01, 2.64, 16.74, -42.38, -0.00, -0.00, -0.00, 5.83, 23.70, -5.89, 0.00, -0.00, 0.00
32.00, 255.00, 0.00, 0.23, 0.09, -0.06, 15.50, 4.10, 11.77, 68.47, -33.43, -0.00, 0.11, 0.01, -18.73, 55.91, 0.07, -0.00, 0.00, 0.00, 3.28, 33.49, -5.90, -0.02, -0.00, -0.01
255.00, 150.00, -110.00, 0.23, 0.16, 0.14, 15.63, 4.09, 22.04, 60.33, -43.13, 0.00, 0.10, 0.01, 4.24, 37.40, -16.43, -0.00, -0.00, -0.00, 3.23, 34.66, -6.46, 0.00, -0.00, 0.00
255.00, 227.00, 208.00, -0.10, 0.21, 0.17, 15.63, 4.04, 34.65, 66.85, -35.60, 0.00, 0.10, 0.01, 28.38, 49.30, 3.63, -0.00, -0.00, 0.00, 5.77, 38.22, -5.03, 0.02, -0.00, 0.01
-164.00, 255.00, 237.00, 0.03, -0.07, 0.08, 15.38, 4.03, 10.71, 73.76, -34.03, 0.00, 0.10, 0.01, -20.22, 63.41, 6.76, -0.00, -0.00, -0.00, 2.34, 45.60, -4.86, -0.02, -0.00, -0.01
65.00, -126.00, 139.00, -0.09, -0.14, 0.01, 15.38, 4.09, 31.83, 48.67, -52.56, 0.00, 0.10, 0.01, 25.42, 16.92, -40.42, -0.00, -0.00, -0.00, 4.18, 33.55, -6.52, 0.02, 0.00, 0.01
-151.00, -208.00, 32.00, 0.11, -0.10, -0.03, 15.63, 4.11, 20.33, 47.21, -59.49, 0.00, 0.11, 0.01, -0.85, 12.66, -53.32, -0.00, 0.00, -0.00, 3.13, 24.24, -8.22, 0.00, 0.00, 0.00
174.00, -163.00, -64.00, -0.18, -0.21, 0.16, 15.50, 4.11, 32.42, 45.94, -60.44, -0.00, 0.10, 0.01, 24.74, 8.98, -52.91, 0.00, -0.00, -0.00, 4.61, 17.23, -8.97, 0.02, 0.00, 0.01
-243.00, -255.00, 226.00, 0.24, 0.20, -0.15, 15.50, 4.05, 25.40, 50.20, -63.94, -0.00, 0.10, 0.01, 9.42, 14.54, -52.15, 0.00, -0.00, 0.00, 4.46, 15.73, -9.96, 0.01, 0.00, 0.01
255.00, 255.00, -218.00, -0.19, -0.01, 0.03, 15.63, 4.01, 15.87, 65.74, -43.12, -0.00, 0.10, 0.01, -10.79, 45.89, -8.60, 0.00, 0.00, 0.00, 3.13, 25.20, -9.35, -0.01, -0.00, -0.00
-253.00, -32.00, 66.00, 0.06, 0.06, -0.06, 15.25, 4.06, 9.72, 58.08, -49.43, 0.00, 0.11, 0.01, -22.78, 34.42, -32.16, -0.00, 0.00, -0.00, 0.60, 27.74, -9.80, -0.02, -0.00, -0.01
111.00, 111.00, -111.00, -0.16, -0.04, 0.22, 15.63, 4.12, 16.91, 59.60, -42.06, 0.00, 0.10, 0.01, -8.23, 37.82, -20.41, -0.00, 0.00, -0.00, -0.28, 30.92, -10.09, -0.01, -0.00, -0.00
-226.00, -80.00, 255.00, -0.23, 0.19, -0.08, 15.75, 4.09, 20.97, 56.52, -50.82, -0.00, 0.11, 0.01, 0.75, 30.14, -30.13, 0.00, 0.00, -0.00, -0.37, 30.33, -11.08, 0.01, 0.00, -0.00
-255.00, 251.00, -138.00, 0.14, -0.01, 0.07, 15.88, 4.04, -11.11, 71.50, -39.51, 0.00, 0.11, 0.01, -64.37, 59.80, -5.42, -0.00, 0.00, -0.00, -6.49, 37.19, -11.08, -0.05, -0.01, -0.02
209.00, -32.00, 125.00, -0.22, 0.10, 0.07, 15.38, 4.07, 37.71, 53.07, -47.47, 0.00, 0.11, 0.01, 35.50, 23.80, -29.17, -0.00, 0.00, -0.00, -2.93, 30.89, -10.99, 0.03, 0.01, 0.01
-255.00, 164.00, 125.00, -0.12, 0.24, -0.23, 15.63, 4.08, 4.05, 70.80, -40.16, 0.00, 0.11, 0.01, -34.08, 57.37, -8.72, -0.01, 0.00, -0.00, -6.02, 38.64, -10.49, -0.03, -0.00, -0.01
-187.00, 255.00, -255.00, 0.15, 0.24, -0.13, 15.50, 4.04, -10.73, 70.32, -42.46, 0.00, 0.10, 0.01, -65.31, 56.00, -9.28, -0.00, -0.01, 0.00, -12.15, 41.34, -10.61, -0.04, -0.02, -0.02
219.00, 255.00, -199.00, 0.10, -0.01, -0.16, 15.63, 4.03, 13.99, 65.81, -41.79, 0.00, 0.10, 0.01, -14.04, 47.22, -7.98, -0.00, -0.00, 0.00, -12.24, 43.20, -10.22, -0.00, -0.00, -0.00
165.00, -32.00, -229.00, -0.08, 0.19, 0.04, 15.75, 4.06, 19.85, 51.20, -54.55, 0.00, 0.10, 0.01, -1.27, 19.11, -41.15, -0.00, -0.00, -0.00, -11.37, 33.40, -12.25, 0.01, -0.00, 0.00
-138.00, 252.00, 81.00, 0.00, 0.13, 0.05, 15.50, 4.09, 5.63, 70.72, -33.51, 0.01, 0.11, 0.01, -31.10, 60.17, 1.87, -0.01, 0.00, -0.00, -12.86, 41.48, -10.92, -0.02, -0.00, -0.01
0.00, 197.00, 96.00, -0.09, -0.03, -0.07, 15.63, 4.10, 17.09, 66.33, -34.08, 0.00, 0.10, 0.01, -8.62, 51.97, -3.55, -0.00, 0.00, -0.00, -12.09, 44.77, -9.85, 0.00, 0.00, -0.00
-150.00, -64.00, -124.00, -0.17, 0.11, -0.19, 15.50, 4.12, 6.15, 53.16, -52.25, 0.01, 0.11, 0.01, -28.01, 24.97, -41.01, -0.01, 0.00, 0.00, -13.92, 35.98, -12.11, -0.01, -0.00, -0.00
-234.00, 174.00, -250.00, 0.18, 0.24, -0.20, 15.38, 4.07, -11.40, 65.99, -46.87, 0.00, 0.10, 0.01, -65.81, 48.60, -19.20, -0.00, -0.00, 0.00, -18.76, 37.79, -11.98, -0.04, -0.01, -0.01
244.00, 255.00, -255.00, 0.17, -0.10, 0.04, 15.63, 4.02, 13.59, 65.76, -43.89, 0.00, 0.11, 0.01, -15.32, 45.44, -9.54, -0.00, 0.00, 0.00, -18.19, 40.30, -11.47, -0.00, 0.00, 0.00
238.00, -165.00, 81.00, -0.16, -0.19, -0.07, 15.63, 4.04, 43.31, 45.26, -56.18, 0.00, 0.11, 0.01, 45.97, 8.07, -45.09, -0.00, 0.00, -0.00, -12.52, 25.14, -9.58, 0.05, 0.01, 0.02
-228.00, -252.00, -125.00, -0.01, 0.01, -0.23, 15.63, 4.06, 12.25, 46.48, -66.90, 0.00, 0.10, 0.00, -19.11, 8.82, -62.93, -0.00, -0.00, -0.01, -13.24, 17.33, -10.83, -0.00, -0.00, -0.00
-32.00, 32.00, -255.00, 0.02, -0.09, 0.13, 15.38, 4.08, 4.55, 55.19, -49.56, 0.00, 0.10, 0.01, -32.32, 28.68, -33.73, -0.00, 0.00, -0.00, -14.55, 21.03, -10.94, -0.01, -0.00, -0.01
48.00, -151.00, 198.00, 0.25, 0.00, -0.08, 15.38, 4.11, 35.88, 50.39, -53.84, -0.00, 0.11, 0.01, 32.30, 17.46, -40.93, 0.00, 0.00, -0.00, -10.65, 18.45, -10.28, 0.04, 0.01, 0.02
255.00, 0.00, -137.00, 0.25, -0.14, -0.21, 15.38, 4.10, 29.28, 52.41, -51.39, 0.00, 0.10, 0.01, 16.54, 21.46, -34.50, -0.00, -0.00, -0.00, -8.60, 18.96, -10.39, 0.02, 0.00, 0.01
255.00, -207.00, -255.00, -0.01, -0.16, -0.21, 15.50, 4.05, 31.45, 43.66, -69.16, 0.00, 0.10, 0.01, 21.56, -0.43, -62.39, -0.00, -0.00, -0.00, -5.71, 10.09, -10.30, 0.03, 0.00, 0.01
-32.00, -228.00, -255.00, -0.22, -0.19, -0.15, 15.38, 4.04, 15.16, 44.20, -67.85, 0.00, 0.11, 0.01, -11.28, 3.85, -64.84, -0.00, 0.00, -0.00, -6.65, 7.56, -11.00, -0.00, 0.00, 0.00
-255.00, -253.00, -219.00, -0.18, 0.13, -0.17, 15.38, 4.03, 6.31, 46.90, -70.52, 0.00, 0.10, 0.01, -30.65, 8.08, -65.93, -0.00, -0.01, 0.00, -9.43, 8.10, -10.99, -0.01, -0.01, -0.00
-245.00, 199.00, -237.00, -0.21, 0.08, 0.10, 15.50, 4.02, -11.63, 67.20, -45.28, 0.00, 0.10, 0.01, -66.49, 51.22, -15.76, -0.00, -0.01, 0.00, -12.22, 21.91, -9.71, -0.04, -0.01, -0.02
-255.00, 139.00, 165.00, 0.13, -0.14, 0.18, 15.75, 4.04, 7.56, 69.50, -41.44, 0.00, 0.10, 0.01, -27.51, 54.76, -10.78, -0.00, -0.00, -0.00, -12.95, 32.37, -8.95, -0.01, -0.00, -0.01
199.00, -209.00, 245.00, -0.04, -0.13, 0.12, 15.38, 4.05, 50.92, 46.92, -59.11, 0.00, 0.11, 0.01, 60.38, 8.32, -45.05, -0.00, 0.00, -0.00, -6.79, 19.90, -5.76, 0.06, 0.01, 0.03
-81.00, -199.00, 188.00, -0.23, 0.24, 0.23, 15.50, 4.06, 31.96, 49.09, -56.72, 0.00, 0.11, 0.01, 21.79, 15.01, -46.32, -0.00, 0.00, -0.00, -4.58, 17.21, -6.24, 0.03, 0.01, 0.01
-255.00, 255.00, 255.00, 0.01, 0.17, -0.06, 15.88, 4.04, 7.00, 75.68, -36.12, -0.00, 0.10, 0.01, -28.37, 66.18, 7.12, 0.00, -0.01, -0.00, -6.16, 32.36, -6.55, -0.01, -0.01, -0.01
32.00, 237.00, -111.00, 0.06, 0.02, -0.09, 15.38, 4.05, 8.92, 67.49, -36.52, 0.00, 0.10, 0.01, -25.88, 52.77, -5.97, -0.00, -0.00, -0.00, -7.98, 38.52, -6.51, -0.02, -0.00, -0.01
111.00, 49.00, -152.00, 0.09, -0.20, 0.20, 15.38, 4.11, 17.98, 55.07, -47.05, -0.00, 0.10, 0.01, -6.45, 29.53, -29.57, 0.00, -0.00, -0.00, -8.02, 34.97, -8.12, 0.01, -0.00, -0.00
150.00, -255.00, 255.00, -0.19, -0.04, 0.18, 15.13, 4.07, 47.92, 45.57, -62.64, 0.00, 0.10, 0.01, 56.70, 5.28, -50.81, -0.00, -0.01, -0.00, -2.37, 20.14, -5.59, 0.05, 0.01, 0.02
-251.00, -81.00, 244.00, -0.02, -0.21, -0.23, 15.63, 4.04, 19.57, 58.65, -52.81, 0.01, 0.11, 0.01, -2.59, 32.54, -32.20, -0.01, 0.00, -0.00, -2.59, 24.10, -6.14, -0.00, 0.00, 0.00
-49.00, -255.00, -255.00, -0.01, 0.04, 0.16, 15.38, 4.05, 15.73, 43.74, -68.85, 0.00, 0.10, 0.01, -10.79, 2.01, -67.01, -0.00, -0.00, -0.00, -4.00, 13.94, -6.93, 0.00, -0.00, 0.00
-32.00, 81.00, 228.00, -0.04, 0.18, -0.07, 15.50, 4.08, 23.82, 62.69, -39.77, 0.00, 0.10, 0.01, 7.08, 42.98, -13.14, -0.00, -0.00, -0.00, -3.20, 23.06, -6.25, 0.01, -0.00, 0.00
-80.00, 244.00, -124.00, -0.22, 0.16, 0.08, 15.75, 4.10, -1.17, 68.74, -37.47, 0.00, 0.10, 0.01, -43.73, 55.46, -6.15, -0.00, -0.00, -0.00, -6.53, 32.51, -6.47, -0.03, -0.01, -0.01
-255.00, 226.00, 138.00, 0.01, -0.15, 0.18, 16.00, 4.06, 2.98, 71.91, -36.90, 0.01, 0.11, 0.01, -36.83, 61.33, -0.38, -0.01, 0.00, -0.00, -9.45, 40.93, -6.48, -0.03, 0.00, -0.01
32.00, -218.00, 244.00, -0.02, 0.18, -0.13, 16.00, 4.06, 39.87, 47.22, -58.52, -0.00, 0.10, 0.01, 39.67, 10.80, -46.84, 0.00, -0.00, -0.00, -5.16, 26.91, -6.21, 0.04, 0.00, 0.02
-49.00, 244.00, -198.00, -0.12, 0.20, -0.08, 15.75, 4.07, -0.22, 68.06, -38.76, 0.01, 0.10, 0.01, -44.11, 53.22, -7.80, -0.01, -0.00, -0.00, -8.47, 34.37, -6.48, -0.03, -0.01, -0.01
-187.00, 255.00, -138.00, 0.01, 0.00, 0.10, 15.75, 4.06, -5.52, 70.78, -38.83, -0.00, 0.10, 0.01, -55.20, 58.68, -5.53, 0.00, 0.00, -0.00, -13.02, 40.46, -6.99, -0.03, -0.01, -0.01
32.00, 0.00, 164.00, -0.18, 0.05, -0.01, 15.75, 4.11, 28.33, 57.04, -44.80, -0.00, 0.10, 0.01, 15.94, 32.52, -25.42, 0.00, -0.00, -0.00, -10.35, 36.96, -7.85, 0.03, 0.00, 0.01
-243.00, 95.00, -32.00, -0.17, -0.08, -0.08, 15.50, 4.12, 0.94, 63.02, -42.81, 0.00, 0.11, 0.01, -41.25, 45.26, -19.67, -0.01, 0.00, -0.00, -13.41, 38.56, -8.58, -0.03, -0.00, -0.01
-234.00, -137.00, -137.00, 0.18, 0.03, 0.07, 15.38, 4.09, 6.09, 53.00, -60.49, 0.00, 0.10, 0.01, -30.51, 21.50, -51.45, -0.00, 0.00, -0.00, -15.29, 30.09, -10.68, -0.01, -0.00, -0.00
243.00, 65.00, 124.00, 0.00, 0.10, 0.12, 15.38, 4.09, 36.19, 56.88, -42.37, 0.00, 0.10, 0.01, 32.05, 31.82, -17.73, -0.01, -0.00, 0.00, -11.39, 29.15, -9.72, 0.03, 0.01, 0.02
0.00, 163.00, 186.00, -0.07, 0.18, 0.24, 15.63, 4.10, 20.56, 64.81, -35.03, 0.00, 0.10, 0.01, 0.44, 48.93, -4.28, -0.00, -0.01, -0.00, -9.92, 35.22, -8.70, 0.01, -0.00, 0.00
-124.00, 243.00, 255.00, 0.24, -0.17, -0.21, 15.50, 4.07, 13.33, 72.19, -34.52, 0.00, 0.11, 0.01, -14.11, 61.08, 5.92, -0.00, 0.00, -0.00, -9.81, 43.14, -7.32, -0.01, 0.00, -0.00
255.00, -236.00, -255.00, -0.04, -0.10, -0.04, 15.63, 4.02, 32.49, 42.09, -70.05, -0.00, 0.11, 0.01, 23.49, -3.39, -64.45, 0.00, 0.00, -0.00, -6.53, 21.20, -6.58, 0.03, 0.01, 0.01
-81.00, -165.00, -81.00, -0.13, -0.19, 0.06, 15.38, 4.07, 18.47, 47.71, -56.94, 0.00, 0.10, 0.01, -5.43, 14.02, -50.86, -0.00, -0.00, -0.00, -6.65, 17.84, -7.74, 0.01, -0.00, 0.00
-198.00, -251.00, 110.00, 0.15, 0.04, -0.21, 15.88, 4.09, 22.36, 47.87, -63.10, -0.00, 0.11, 0.01, 3.59, 11.77, -56.22, 0.00, 0.00, 0.00, -5.95, 14.86, -8.74, 0.02, 0.01, 0.01
217.00, 80.00, -255.00, -0.07, -0.09, -0.19, 15.38, 4.06, 19.16, 57.12, -49.37, 0.00, 0.10, 0.01, -4.62, 29.18, -28.35, -0.00, -0.00, -0.00, -5.89, 19.61, -8.83, 0.00, 0.00, 0.00
-125.00, -152.00, -252.00, -0.14, -0.19, -0.21, 15.50, 4.06, 7.56, 47.82, -61.75, 0.00, 0.11, 0.01, -27.07, 12.46, -55.01, -0.00, 0.00, -0.00, -8.05, 16.16, -9.43, -0.01, -0.00, -0.00
-208.00, -252.00, -255.00, -0.20, -0.13, 0.15, 15.75, 4.04, 7.57, 46.32, -70.18, 0.00, 0.10, 0.01, -28.29, 6.25, -66.57, -0.00, -0.00, -0.00, -10.41, 11.61, -9.87, -0.01, -0.00, -0.00
-255.00, -199.00, 219.00, -0.05, 0.07, -0.20, 15.50, 4.02, 22.08, 52.44, -59.97, 0.00, 0.10, 0.01, 3.08, 20.11, -45.79, -0.00, -0.01, -0.00, -9.33, 14.52, -10.22, 0.01, -0.00, 0.01
-97.00, 126.00, -255.00, 0.10, 0.12, 0.11, 15.75, 4.06, -0.51, 60.90, -45.69, 0.00, 0.10, 0.01, -45.00, 39.73, -23.59, -0.00, -0.00, 0.00, -11.55, 22.59, -9.50, -0.02, -0.01, -0.01
164.00, 187.00, 176.00, -0.08, 0.21, -0.09, 15.25, 4.08, 28.53, 64.72, -36.54, -0.00, 0.11, 0.01, 16.87, 47.54, -3.02, 0.00, 0.00, -0.00, -8.78, 29.69, -8.08, 0.02, 0.01, 0.01
-138.00, 255.00, -151.00, 0.03, 0.02, 0.10, 15.63, 4.07, -2.89, 69.51, -38.94, 0.00, 0.10, 0.01, -50.35, 56.78, -6.36, -0.00, -0.00, 0.00, -12.39, 37.20, -8.14, -0.03, -0.01, -0.01
65.00, 49.00, 164.00, -0.24, 0.05, -0.22, 15.38, 4.10, 29.49, 58.87, -42.12, 0.00, 0.10, 0.01, 17.04, 36.46, -19.69, -0.00, -0.00, 0.00, -9.63, 36.24, -8.31, 0.02, 0.00, 0.01
-255.00, 95.00, -255.00, -0.15, -0.23, -0.04, 15.38, 4.08, -9.60, 62.72, -50.77, 0.00, 0.11, 0.01, -62.33, 41.58, -28.23, -0.00, 0.00, -0.00, -14.61, 35.34, -8.85, -0.04, -0.01, -0.01
-218.00, -255.00, -80.00, 0.21, -0.21, 0.23, 15.63, 4.05, 13.23, 46.13, -66.30, 0.00, 0.11, 0.01, -15.38, 8.82, -62.34, -0.00, 0.00, -0.00, -14.68, 22.68, -10.53, 0.00, 0.00, 0.00
255.00, -255.00, 255.00, -0.23, -0.06, -0.11, 15.63, 4.02, 54.15, 44.37, -63.67, 0.01, 0.11, 0.01, 68.73, 1.99, -50.05, -0.01, 0.00, 0.00, -7.45, 11.75, -5.27, 0.06, 0.02, 0.03
-255.00, -111.00, -177.00, 0.09, -0.13, 0.06, 15.50, 4.04, 2.19, 52.22, -58.20, -0.00, 0.10, 0.01, -38.16, 21.84, -47.46, 0.00, -0.00, 0.00, -9.91, 15.22, -5.16, -0.01, -0.01, -0.00
152.00, -199.00, 111.00, -0.04, -0.09, 0.05, 15.50, 4.08, 40.24, 44.78, -58.18, 0.00, 0.10, 0.01, 40.56, 7.57, -49.31, -0.00, -0.00, -0.00, -5.85, 11.16, -4.08, 0.05, 0.01, 0.02
-80.00, -151.00, 96.00, 0.17, 0.01, -0.07, 15.38, 4.11, 25.30, 49.42, -54.34, 0.00, 0.10, 0.01, 9.21, 17.73, -44.75, -0.00, -0.01, -0.00, -4.88, 13.29, -4.56, 0.02, -0.00, 0.01
234.00, 32.00, -124.00, 0.19, 0.23, -0.17, 15.75, 4.11, 27.73, 53.27, -47.81, 0.00, 0.10, 0.01, 12.96, 24.71, -29.45, -0.00, -0.00, -0.00, -3.80, 16.88, -4.68, 0.02, -0.00, 0.01
250.00, 255.00, -234.00, -0.04, 0.22, -0.08, 15.25, 4.05, 14.92, 65.93, -41.68, 0.00, 0.10, 0.01, -12.81, 45.97, -6.98, -0.00, -0.00, -0.00, -4.37, 26.02, -4.52, -0.01, -0.00, -0.00
-81.00, 255.00, -139.00, 0.22, 0.13, 0.23, 15.25, 4.05, -0.18, 69.38, -37.14, -0.00, 0.10, 0.01, -43.56, 56.24, -5.08, 0.00, 0.00, -0.00, -7.74, 34.72, -5.05, -0.03, -0.01, -0.01
255.00, 199.00, 255.00, -0.23, -0.05, 0.19, 15.75, 4.04, 38.09, 65.68, -37.27, 0.00, 0.11, 0.01, 35.03, 46.72, 1.70, -0.00, 0.00, 0.00, -3.40, 36.56, -3.54, 0.03, 0.01, 0.01
-255.00, -96.00, 252.00, 0.08, 0.04, 0.23, 15.50, 4.03, 20.64, 58.16, -52.50, -0.00, 0.10, 0.01, -0.80, 31.29, -32.18, 0.00, -0.00, 0.00, -3.39, 34.13, -5.32, 0.01, -0.00, 0.00
139.00, 81.00, 255.00, 0.22, 0.11, -0.10, 15.50, 4.06, 36.44, 61.77, -41.32, -0.00, 0.10, 0.01, 31.15, 39.68, -12.56, 0.00, 0.00, -0.00, -0.26, 34.72, -4.85, 0.03, 0.01, 0.01
255.00, 176.00, -164.00, 0.23, -0.22, -0.15, 15.50, 4.06, 19.15, 61.02, -43.15, 0.00, 0.10, 0.01, -2.18, 38.53, -14.78, -0.00, -0.00, -0.00, -0.53, 35.87, -5.47, 0.00, -0.00, -0.00
255.00, -255.00, -218.00, 0.21, 0.03, -0.22, 15.75, 4.03, 34.95, 41.03, -69.61, 0.00, 0.10, 0.01, 28.22, -4.81, -64.95, -0.00, -0.00, -0.00, 1.70, 16.82, -4.87, 0.03, 0.00, 0.01
