-228.00, 237.00, -65.00, -0.14, 0.18, 0.16, 13.88, 4.06, 71.84, 22.43, -66.60, -0.00, 0.10, 0.01, 23.69, 10.96, -33.31, 0.00, -0.00, -0.00, 25.63, 10.46, -32.84, -0.00, -0.00, -0.00
-209.00, 244.00, 228.00, -0.07, 0.25, -0.16, 14.25, 4.04, 57.03, 20.72, -72.22, -0.00, 0.10, 0.00, 23.37, 10.46, -31.70, 0.00, -0.01, -0.01, 25.48, 10.49, -32.87, -0.00, -0.01, -0.01
-125.00, 255.00, -228.00, -0.05, -0.14, -0.06, 13.88, 4.03, 75.86, 23.82, -64.60, 0.00, 0.10, 0.01, 26.05, 9.56, -32.11, -0.00, -0.00, -0.00, 25.54, 10.13, -32.85, -0.00, -0.00, -0.00
-97.00, -210.00, -111.00, -0.18, -0.16, 0.13, 14.00, 4.07, 51.18, 45.51, -37.33, 0.00, 0.10, 0.01, 26.56, 9.20, -33.09, -0.00, -0.00, -0.00, 25.62, 9.76, -32.84, 0.00, -0.00, 0.00
-244.00, -227.00, 198.00, 0.09, -0.06, 0.13, 13.88, 4.06, 42.15, 44.23, -46.19, 0.00, 0.09, 0.01, 23.77, 10.27, -33.98, -0.00, -0.01, -0.00, 25.45, 9.98, -32.92, -0.00, -0.01, -0.00
152.00, -111.00, 198.00, 0.08, -0.18, -0.12, 14.25, 4.06, 26.22, 42.91, -49.43, -0.00, 0.10, 0.01, 26.99, 10.74, -33.36, 0.00, -0.00, -0.00, 25.55, 10.25, -32.87, 0.00, -0.00, 0.00
138.00, -244.00, -187.00, 0.04, -0.01, 0.10, 14.25, 4.07, 39.42, 52.89, -37.69, -0.00, 0.11, 0.01, 26.66, 10.61, -34.45, 0.00, 0.00, -0.00, 25.60, 10.37, -32.87, 0.00, 0.00, 0.00
81.00, -32.00, 164.00, 0.04, -0.09, 0.14, 13.63, 4.10, 35.44, 35.53, -51.07, -0.00, 0.11, 0.01, 27.24, 8.78, -32.83, 0.00, 0.00, 0.00, 25.74, 9.74, -32.85, 0.00, 0.00, 0.00
80.00, -150.00, 207.00, -0.19, -0.22, 0.19, 14.00, 4.11, 29.13, 42.21, -46.81, -0.00, 0.10, 0.01, 27.82, 8.96, -33.00, 0.00, -0.01, -0.00, 25.90, 9.42, -32.80, 0.00, -0.00, -0.00
-250.00, -255.00, 250.00, -0.16, -0.09, -0.23, 14.13, 4.04, 40.16, 44.75, -47.44, 0.00, 0.10, 0.01, 24.74, 9.26, -34.14, -0.00, -0.01, -0.00, 25.79, 9.38, -32.87, -0.00, -0.01, -0.00
-228.00, -152.00, -255.00, -0.23, -0.08, -0.18, 14.00, 4.02, 65.68, 42.81, -42.65, 0.00, 0.10, 0.01, 25.10, 8.63, -33.88, -0.00, -0.00, -0.00, 25.72, 9.11, -32.94, -0.00, -0.00, -0.00
-255.00, -140.00, -246.00, -0.16, -0.22, 0.06, 14.00, 4.03, 66.62, 41.48, -43.35, 0.00, 0.10, 0.01, 24.31, 8.38, -33.50, -0.00, -0.00, -0.00, 25.60, 8.86, -33.00, -0.00, -0.00, -0.00
-229.00, -255.00, 111.00, -0.11, -0.11, 0.12, 14.00, 4.04, 43.99, 46.23, -42.15, 0.00, 0.10, 0.01, 23.43, 10.55, -34.30, -0.00, -0.00, -0.00, 25.39, 9.53, -33.06, -0.00, -0.00, -0.00
-177.00, -177.00, 188.00, 0.10, 0.18, 0.04, 14.38, 4.05, 42.15, 40.35, -46.43, -0.00, 0.10, 0.01, 25.42, 8.47, -33.80, 0.00, 0.00, -0.00, 25.39, 9.13, -33.10, 0.00, 0.00, -0.00
164.00, 245.00, 81.00, -0.14, -0.04, 0.16, 14.00, 4.07, 41.87, 24.96, -68.78, -0.00, 0.10, 0.01, 23.48, 10.38, -33.12, 0.00, -0.01, -0.00, 25.23, 9.63, -33.13, -0.00, -0.01, -0.00
-208.00, -81.00, 227.00, 0.02, 0.02, -0.21, 14.25, 4.07, 45.73, 37.23, -52.82, 0.00, 0.10, 0.01, 25.22, 10.79, -33.53, -0.00, -0.00, -0.00, 25.20, 10.07, -33.11, -0.00, -0.00, -0.00
49.00, 49.00, -255.00, -0.03, -0.05, -0.05, 14.00, 4.09, 58.02, 35.81, -51.39, -0.00, 0.10, 0.01, 25.17, 9.35, -34.06, 0.00, -0.01, -0.00, 25.19, 9.80, -33.16, 0.00, -0.01, -0.00
-65.00, -96.00, -96.00, -0.10, 0.25, -0.21, 14.25, 4.12, 50.79, 40.51, -43.12, 0.00, 0.10, 0.01, 24.28, 10.25, -33.83, -0.00, -0.00, -0.00, 25.10, 9.98, -33.19, -0.00, -0.00, -0.00
-162.00, 255.00, -255.00, 0.20, 0.14, -0.14, 14.13, 4.07, 76.76, 24.10, -66.06, 0.00, 0.10, 0.01, 23.18, 9.77, -32.78, -0.00, -0.00, -0.00, 24.96, 9.93, -33.24, -0.01, -0.00, -0.00
255.00, 208.00, -208.00, -0.24, -0.23, 0.15, 14.00, 4.03, 50.15, 30.56, -64.63, 0.00, 0.10, 0.01, 25.55, 8.87, -33.69, -0.00, -0.00, -0.00, 25.01, 9.52, -33.25, -0.00, -0.00, -0.00
-255.00, -255.00, 219.00, -0.13, 0.19, -0.11, 14.38, 4.02, 42.17, 45.12, -46.13, -0.04, 0.10, 0.01, 25.00, 9.85, -33.99, 0.04, -0.01, -0.00, 24.99, 9.65, -33.27, 0.04, -0.01, -0.00
-200.00, 253.00, -177.00, -0.17, -0.17, -0.19, 13.88, 4.03, 74.70, 22.80, -65.84, 0.00, 0.11, 0.01, 22.89, 10.05, -32.54, -0.00, 0.00, -0.00, 24.84, 9.82, -33.30, -0.00, 0.00, -0.00
-237.00, -237.00, -253.00, 0.16, -0.07, 0.16, 13.88, 4.02, 62.35, 48.06, -39.04, 0.01, 0.10, 0.01, 24.37, 9.40, -33.74, -0.01, -0.00, -0.00, 24.80, 9.67, -33.33, -0.01, -0.00, -0.00
229.00, -126.00, 229.00, -0.02, 0.20, 0.01, 14.13, 4.03, 18.93, 43.63, -51.42, -0.00, 0.10, 0.01, 26.08, 9.06, -33.54, 0.00, -0.00, -0.00, 24.90, 9.42, -33.31, 0.00, -0.00, -0.00
-49.00, 255.00, 32.00, 0.17, -0.08, -0.14, 13.75, 4.08, 58.86, 21.51, -67.03, 0.00, 0.10, 0.01, 24.95, 10.09, -32.79, -0.01, -0.01, -0.00, 24.90, 9.67, -33.28, -0.01, -0.01, -0.00
236.00, -138.00, -208.00, 0.07, 0.25, -0.23, 14.13, 4.07, 38.35, 48.96, -44.10, 0.00, 0.10, 0.01, 26.74, 10.07, -34.51, -0.01, -0.00, 0.00, 25.02, 9.80, -33.25, -0.00, -0.00, 0.00
125.00, 255.00, -255.00, -0.24, -0.14, -0.13, 14.13, 4.04, 62.76, 27.87, -66.15, 0.00, 0.10, 0.01, 26.48, 10.20, -33.22, -0.00, -0.00, -0.00, 25.12, 9.93, -33.20, 0.00, -0.00, -0.00
-255.00, -209.00, -199.00, -0.23, -0.14, 0.23, 14.25, 4.03, 62.47, 47.12, -41.30, 0.00, 0.10, 0.01, 24.79, 11.16, -34.67, -0.00, -0.00, -0.00, 25.05, 10.41, -33.22, -0.00, -0.00, -0.00
-255.00, -210.00, 255.00, -0.23, -0.13, -0.13, 14.13, 4.02, 42.49, 42.65, -49.08, 0.00, 0.10, 0.01, 25.40, 9.75, -33.53, -0.00, -0.00, -0.00, 25.08, 10.15, -33.23, -0.00, -0.00, -0.00
-255.00, -200.00, -200.00, 0.18, -0.22, 0.18, 14.13, 4.02, 62.91, 45.02, -40.24, 0.00, 0.10, 0.01, 24.90, 9.58, -33.16, -0.00, -0.01, -0.00, 25.07, 9.94, -33.25, -0.00, -0.01, -0.00
246.00, -255.00, 246.00, -0.08, -0.04, -0.10, 13.88, 4.01, 14.10, 50.54, -46.78, -0.00, 0.10, 0.01, 27.50, 8.60, -33.42, -0.00, -0.00, -0.00, 25.26, 9.40, -33.20, 0.00, -0.00, -0.00
-140.00, -81.00, -165.00, -0.13, 0.07, -0.19, 14.13, 4.06, 58.94, 39.07, -43.09, -0.00, 0.11, 0.01, 24.38, 9.43, -32.59, 0.00, 0.00, -0.00, 25.21, 9.42, -33.21, -0.00, 0.00, -0.00
-198.00, 125.00, -252.00, 0.20, 0.20, -0.23, 13.63, 4.08, 73.91, 31.19, -57.13, 0.00, 0.10, 0.01, 23.34, 11.14, -33.36, -0.00, -0.01, -0.00, 25.04, 10.09, -33.22, -0.00, -0.01, -0.00
255.00, 255.00, -255.00, 0.13, -0.13, 0.17, 14.00, 4.02, 54.97, 29.49, -67.95, 0.00, 0.10, 0.01, 26.61, 9.01, -33.00, -0.01, -0.00, -0.00, 25.17, 9.66, -33.19, -0.00, -0.00, -0.00
199.00, -199.00, 238.00, 0.20, -0.10, -0.05, 13.88, 4.02, 16.46, 46.04, -47.53, 0.00, 0.10, 0.01, 24.78, 8.27, -33.03, -0.00, -0.00, -0.00, 25.16, 9.14, -33.22, -0.00, -0.00, -0.00
255.00, -165.00, -97.00, 0.03, 0.01, 0.03, 14.00, 4.05, 31.67, 48.76, -42.36, 0.00, 0.10, 0.01, 27.16, 9.73, -33.27, -0.00, -0.00, -0.00, 25.30, 9.34, -33.15, 0.00, -0.00, -0.00
65.00, 32.00, 65.00, -0.24, 0.12, -0.10, 13.88, 4.12, 42.14, 33.10, -51.18, -0.00, 0.10, 0.01, 25.66, 9.69, -32.24, 0.00, -0.00, -0.00, 25.34, 9.46, -33.11, 0.00, -0.00, -0.00
-255.00, 186.00, -162.00, 0.07, -0.02, -0.02, 14.13, 4.10, 75.99, 25.34, -60.98, 0.00, 0.10, 0.01, 23.44, 10.58, -31.63, -0.00, -0.01, -0.00, 25.22, 9.90, -33.09, -0.00, -0.01, -0.00
124.00, -48.00, -48.00, -0.05, 0.23, -0.24, 14.13, 4.11, 41.32, 39.86, -45.98, 0.00, 0.10, 0.01, 26.54, 10.42, -32.99, -0.00, -0.00, -0.00, 25.31, 10.08, -33.04, -0.00, -0.00, -0.00
-95.00, 255.00, -255.00, -0.08, 0.21, -0.02, 14.50, 4.08, 72.76, 24.52, -64.85, 0.00, 0.10, 0.01, 23.03, 9.62, -32.19, -0.00, -0.00, -0.00, 25.16, 9.94, -33.09, -0.01, -0.00, -0.00
-138.00, 255.00, -48.00, 0.20, -0.11, 0.07, 14.13, 4.06, 65.68, 21.82, -66.63, -0.00, 0.10, 0.01, 22.91, 10.47, -33.14, 0.00, -0.00, -0.00, 24.98, 10.17, -33.14, -0.00, -0.00, -0.00
255.00, -176.00, 125.00, -0.24, 0.10, -0.20, 14.25, 4.07, 21.91, 46.76, -45.88, 0.00, 0.10, 0.01, 28.22, 8.64, -33.44, -0.00, -0.00, -0.00, 25.24, 9.54, -33.07, 0.00, -0.00, -0.00
-255.00, 164.00, -255.00, 0.04, -0.07, -0.22, 14.00, 4.04, 77.35, 28.53, -61.68, -0.00, 0.09, 0.01, 22.18, 10.80, -34.13, 0.00, -0.01, -0.00, 24.96, 10.06, -33.15, 0.00, -0.01, -0.00
81.00, -125.00, -255.00, 0.06, -0.01, 0.02, 13.88, 4.05, 49.17, 43.61, -40.84, 0.00, 0.10, 0.01, 25.50, 7.59, -32.61, -0.00, -0.00, -0.00, 25.03, 9.12, -33.16, -0.00, -0.00, -0.00
111.00, -32.00, 49.00, -0.08, 0.01, -0.24, 14.13, 4.12, 36.50, 37.56, -48.41, 0.00, 0.10, 0.01, 24.85, 9.95, -33.15, -0.00, -0.01, 0.00, 25.01, 9.44, -33.14, -0.00, -0.01, 0.00
-137.00, 32.00, -255.00, 0.13, 0.12, 0.23, 14.00, 4.12, 68.85, 34.57, -49.31, -0.00, 0.10, 0.01, 25.39, 9.14, -32.51, 0.00, -0.01, -0.00, 25.05, 9.32, -33.12, 0.00, -0.01, -0.00
196.00, 186.00, 255.00, 0.19, -0.20, 0.20, 13.88, 4.06, 31.64, 28.00, -69.04, 0.00, 0.10, 0.01, 25.43, 10.03, -31.71, -0.00, -0.01, -0.00, 25.09, 9.58, -33.06, -0.00, -0.01, -0.00
252.00, -255.00, 255.00, 0.25, 0.24, 0.01, 14.13, 4.01, 13.08, 49.68, -47.34, 0.00, 0.10, 0.01, 27.26, 7.54, -33.50, -0.00, -0.00, -0.00, 25.26, 8.77, -33.04, 0.00, -0.00, -0.00
255.00, 255.00, 32.00, -0.04, 0.20, -0.14, 14.00, 4.02, 41.64, 26.09, -69.25, 0.00, 0.10, 0.01, 26.08, 9.44, -32.54, -0.00, -0.01, -0.00, 25.33, 9.01, -32.99, -0.00, -0.01, -0.00
-81.00, 255.00, -210.00, -0.18, 0.08, -0.13, 14.00, 4.05, 71.60, 24.39, -64.73, -0.00, 0.10, 0.01, 24.97, 10.15, -32.49, 0.00, -0.00, -0.00, 25.30, 9.44, -32.96, 0.00, -0.00, -0.00
-245.00, 139.00, -199.00, 0.23, 0.19, -0.15, 14.25, 4.05, 73.91, 27.33, -56.96, 0.00, 0.10, 0.01, 22.63, 9.41, -31.58, -0.00, -0.01, -0.00, 25.13, 9.46, -32.99, -0.00, -0.01, -0.00
255.00, 252.00, -218.00, 0.08, 0.08, 0.22, 14.13, 4.03, 52.48, 28.95, -67.29, 0.00, 0.10, 0.01, 25.83, 9.08, -32.71, -0.00, -0.00, -0.00, 25.18, 9.31, -32.97, -0.00, -0.00, -0.00
139.00, 139.00, 255.00, 0.01, 0.16, -0.16, 14.00, 4.04, 33.56, 28.54, -66.09, 0.00, 0.10, 0.01, 25.64, 9.39, -33.26, -0.00, -0.00, 0.00, 25.21, 9.33, -32.97, -0.00, -0.00, 0.00
32.00, 228.00, -228.00, 0.04, -0.16, -0.04, 13.88, 4.06, 63.45, 27.00, -63.12, 0.00, 0.10, 0.01, 23.61, 10.05, -33.13, -0.00, -0.00, -0.00, 25.08, 9.63, -33.00, -0.00, -0.00, -0.00
81.00, -227.00, -81.00, 0.24, -0.13, 0.18, 14.00, 4.09, 37.77, 48.45, -37.08, 0.01, 0.10, 0.01, 25.80, 9.53, -33.29, -0.01, -0.01, -0.00, 25.13, 9.58, -32.99, -0.01, -0.01, -0.00
255.00, -197.00, 243.00, -0.20, -0.12, -0.23, 14.00, 4.05, 16.30, 47.38, -48.42, -0.00, 0.10, 0.01, 28.64, 8.14, -32.61, 0.00, -0.00, -0.00, 25.41, 8.99, -32.89, 0.00, -0.00, -0.00
-255.00, -188.00, -255.00, 0.23, -0.19, 0.01, 13.63, 4.02, 65.92, 44.72, -40.98, 0.00, 0.10, 0.01, 25.12, 8.89, -33.22, -0.00, -0.00, -0.00, 25.38, 8.95, -32.91, -0.00, -0.00, -0.00
255.00, -253.00, 32.00, 0.24, -0.01, -0.08, 14.25, 4.04, 22.22, 51.67, -40.69, -0.00, 0.10, 0.01, 26.62, 9.11, -33.74, 0.00, -0.01, -0.00, 25.46, 9.00, -32.89, 0.00, -0.01, -0.00
255.00, -32.00, -139.00, 0.20, -0.13, -0.07, 13.88, 4.07, 39.26, 42.55, -48.19, 0.00, 0.10, 0.01, 27.57, 10.06, -32.76, -0.00, -0.01, -0.00, 25.61, 9.37, -32.80, -0.00, -0.01, 0.00
255.00, -198.00, -125.00, -0.18, 0.09, -0.24, 13.75, 4.07, 32.21, 49.06, -40.75, 0.00, 0.10, 0.01, 27.74, 7.78, -33.28, -0.00, -0.00, -0.00, 25.77, 8.74, -32.77, -0.00, -0.00, 0.00
-244.00, 151.00, -255.00, 0.10, -0.11, 0.16, 14.00, 4.04, 79.07, 27.52, -58.36, -0.00, 0.10, 0.01, 25.06, 9.05, -32.01, 0.00, 0.00, -0.00, 25.73, 8.86, -32.77, -0.00, -0.00, -0.00
165.00, -177.00, 228.00, -0.17, -0.09, -0.24, 14.25, 4.04, 19.12, 46.20, -48.32, -0.00, 0.10, 0.01, 24.44, 10.21, -33.91, 0.00, -0.01, -0.00, 25.59, 9.39, -32.81, -0.00, -0.01, -0.00
-237.00, -152.00, -255.00, -0.21, 0.06, 0.19, 14.25, 4.04, 66.91, 45.15, -42.84, -0.01, 0.10, 0.01, 25.67, 10.97, -33.99, 0.00, -0.00, -0.00, 25.56, 9.99, -32.80, 0.01, -0.00, -0.00
-255.00, 111.00, 253.00, -0.02, -0.03, 0.10, 14.13, 4.03, 53.42, 26.32, -65.02, 0.00, 0.10, 0.01, 23.44, 10.17, -32.56, -0.00, -0.01, -0.00, 25.40, 10.09, -32.85, -0.00, -0.01, -0.00
-49.00, -65.00, 165.00, -0.21, -0.16, 0.08, 14.25, 4.09, 40.03, 36.66, -48.99, -0.00, 0.10, 0.01, 25.42, 9.63, -32.97, 0.00, -0.00, -0.00, 25.40, 9.92, -32.86, 0.00, -0.00, -0.00
-255.00, -227.00, 138.00, -0.02, 0.09, -0.13, 14.13, 4.08, 47.98, 44.49, -45.07, 0.00, 0.10, 0.01, 26.21, 10.56, -34.78, -0.00, -0.00, -0.00, 25.42, 10.15, -32.88, -0.00, -0.00, -0.00
-48.00, 151.00, -198.00, -0.07, 0.10, 0.22, 14.00, 4.07, 63.71, 29.66, -59.15, 0.00, 0.09, 0.01, 23.39, 10.51, -35.26, -0.00, -0.01, -0.00, 25.20, 10.32, -33.00, -0.00, -0.01, -0.00
-125.00, 164.00, 255.00, 0.22, -0.02, 0.16, 13.75, 4.08, 46.76, 25.24, -67.93, -0.00, 0.10, 0.01, 22.19, 10.57, -33.43, 0.00, -0.00, -0.00, 24.96, 10.46, -33.08, 0.00, -0.01, -0.00
255.00, -48.00, 227.00, 0.23, 0.15, 0.12, 14.13, 4.06, 20.83, 40.00, -54.78, 0.00, 0.10, 0.01, 26.63, 8.85, -32.55, -0.00, -0.00, -0.00, 25.11, 9.83, -33.05, -0.00, -0.00, -0.00
255.00, 218.00, 187.00, 0.17, -0.12, -0.05, 14.00, 4.04, 33.48, 27.59, -71.22, 0.00, 0.10, 0.01, 26.46, 9.75, -33.23, -0.00, -0.00, 0.00, 25.20, 9.78, -33.01, -0.00, -0.00, 0.00
237.00, -188.00, -96.00, -0.16, 0.23, 0.04, 13.88, 4.05, 31.96, 48.74, -40.59, 0.00, 0.10, 0.01, 27.25, 8.95, -32.86, -0.00, -0.00, -0.00, 25.37, 9.43, -32.96, -0.00, -0.00, -0.00
-228.00, 255.00, 81.00, -0.24, -0.21, 0.15, 14.00, 4.06, 65.33, 20.77, -70.64, 0.00, 0.10, 0.01, 23.28, 11.18, -33.43, -0.00, -0.00, -0.00, 25.18, 10.12, -32.99, -0.00, -0.00, -0.00
-255.00, -255.00, 218.00, 0.19, 0.03, 0.04, 13.88, 4.03, 41.65, 45.34, -46.33, 0.00, 0.10, 0.01, 24.45, 10.05, -34.22, -0.00, -0.00, -0.00, 25.10, 10.11, -33.05, -0.00, -0.00, -0.00
253.00, 65.00, 81.00, 0.22, 0.19, 0.06, 14.13, 4.05, 30.74, 34.43, -55.71, 0.00, 0.10, 0.01, 24.93, 9.06, -31.86, -0.00, -0.01, -0.00, 25.12, 9.72, -33.04, -0.00, -0.01, -0.00
255.00, 252.00, 111.00, -0.15, -0.11, -0.23, 14.00, 4.06, 37.04, 25.87, -70.53, 0.00, 0.10, 0.01, 25.35, 9.56, -31.94, -0.00, -0.00, 0.00, 25.15, 9.65, -33.00, -0.00, -0.00, 0.00
-218.00, -176.00, -255.00, 0.17, 0.13, 0.22, 14.13, 4.04, 63.40, 46.55, -41.44, -0.00, 0.10, 0.01, 24.19, 10.90, -34.02, 0.00, -0.00, -0.00, 25.04, 10.14, -33.03, 0.00, -0.00, -0.00
237.00, 199.00, 255.00, -0.20, 0.17, -0.11, 14.00, 4.03, 30.65, 27.96, -70.55, 0.00, 0.10, 0.01, 26.25, 9.55, -31.74, -0.00, -0.01, 0.00, 25.16, 9.90, -32.97, -0.00, -0.01, 0.00
-255.00, 237.00, -177.00, 0.09, 0.08, 0.09, 14.13, 4.02, 77.45, 24.17, -66.12, 0.00, 0.10, 0.01, 23.12, 11.25, -33.09, -0.00, -0.01, -0.00, 24.99, 10.43, -33.00, -0.00, -0.01, -0.00
153.00, 139.00, 153.00, 0.06, -0.02, 0.06, 14.13, 4.06, 37.02, 28.75, -62.80, -0.00, 0.10, 0.01, 25.41, 9.52, -33.60, 0.00, -0.01, -0.00, 25.01, 10.08, -33.02, 0.00, -0.01, 0.00
111.00, -49.00, 111.00, 0.18, 0.04, -0.14, 14.00, 4.12, 35.90, 37.62, -48.70, 0.00, 0.10, 0.01, 27.90, 9.35, -32.84, -0.00, -0.01, -0.00, 25.24, 9.76, -32.94, 0.00, -0.01, -0.00
242.00, 80.00, -207.00, 0.20, -0.01, -0.21, 14.13, 4.10, 45.35, 37.77, -56.43, 0.00, 0.10, 0.01, 25.15, 10.23, -34.72, -0.00, -0.00, -0.00, 25.19, 9.94, -32.99, -0.00, -0.00, -0.00
255.00, -32.00, -255.00, 0.04, 0.01, -0.20, 14.00, 4.05, 43.29, 42.01, -48.71, 0.00, 0.11, 0.01, 26.43, 7.45, -33.26, -0.00, 0.00, -0.00, 25.30, 8.98, -32.99, -0.00, 0.00, -0.00
81.00, 32.00, -255.00, 0.02, -0.03, 0.14, 14.00, 4.07, 55.45, 37.39, -49.56, -0.00, 0.10, 0.01, 25.29, 9.63, -33.05, -0.00, -0.01, -0.00, 25.29, 9.23, -32.98, -0.00, -0.01, -0.00
49.00, -65.00, 208.00, -0.08, 0.04, -0.20, 14.13, 4.11, 31.85, 37.26, -50.66, 0.00, 0.10, 0.01, 25.22, 9.10, -32.85, -0.00, -0.00, -0.00, 25.29, 9.18, -32.99, -0.00, -0.00, -0.00
-137.00, 80.00, -255.00, 0.15, 0.16, 0.02, 14.13, 4.01, 69.10, 33.22, -53.13, -0.00, 0.10, 0.01, 24.47, 10.21, -33.48, 0.00, -0.00, -0.00, 25.20, 9.58, -33.00, 0.00, -0.00, -0.00
220.00, 229.00, 49.00, -0.13, -0.20, -0.01, 14.00, 3.97, 41.26, 27.10, -67.36, 0.00, 0.10, 0.01, 25.19, 10.13, -33.51, -0.00, -0.01, -0.00, 25.19, 9.79, -33.00, -0.00, -0.01, -0.00
-201.00, -255.00, -32.00, 0.17, 0.16, -0.21, 14.13, 3.97, 49.82, 46.77, -39.13, -0.00, 0.10, 0.01, 24.40, 10.25, -34.37, 0.00, -0.01, -0.00, 25.09, 9.98, -33.06, 0.00, -0.01, -0.00
239.00, 231.00, -255.00, -0.10, 0.19, 0.23, 14.25, 3.87, 53.48, 30.88, -63.55, -0.00, 0.10, 0.01, 25.38, 9.53, -31.92, 0.00, -0.00, -0.00, 25.14, 9.80, -33.03, 0.00, -0.00, -0.00
-170.00, 255.00, 255.00, -0.19, -0.08, 0.13, 14.00, 3.73, 55.66, 21.79, -70.21, -0.00, 0.10, 0.01, 25.99, 10.01, -31.05, 0.00, -0.00, -0.00, 25.23, 9.86, -32.94, 0.00, -0.00, 0.00
-255.00, -147.00, 209.00, -0.20, -0.12, 0.06, 13.88, 3.73, 44.52, 40.49, -49.97, 0.00, 0.10, 0.01, 22.96, 11.59, -33.64, -0.00, -0.00, -0.00, 25.02, 10.54, -32.98, -0.01, -0.00, -0.00
-255.00, -198.00, 118.00, 0.17, 0.06, 0.22, 14.25, 3.75, 48.51, 42.74, -45.37, 0.00, 0.10, 0.01, 24.95, 11.24, -33.92, -0.00, -0.01, -0.00, 24.99, 10.81, -32.99, -0.00, -0.01, 0.00
247.00, 117.00, 255.00, -0.03, 0.03, -0.21, 14.00, 3.75, 27.95, 31.57, -63.65, -0.00, 0.10, 0.01, 25.25, 8.78, -32.36, 0.00, -0.01, 0.00, 25.04, 10.05, -33.01, 0.00, -0.01, 0.00
-69.00, 69.00, -255.00, -0.01, 0.05, -0.10, 14.38, 3.70, 61.40, 34.08, -51.93, -0.00, 0.10, 0.01, 23.16, 9.83, -33.89, 0.00, -0.00, -0.00, 24.87, 9.99, -33.09, 0.00, -0.00, -0.00
-33.00, 103.00, -175.00, 0.07, 0.18, 0.24, 14.13, 3.62, 57.95, 32.42, -54.38, -0.00, 0.10, 0.01, 23.80, 10.60, -34.71, 0.00, -0.00, -0.00, 24.75, 10.24, -33.15, 0.00, -0.00, -0.00
136.00, 255.00, 255.00, -0.11, -0.04, 0.05, 14.13, 3.49, 40.02, 25.08, -70.46, 0.00, 0.10, 0.01, 25.62, 9.26, -33.65, -0.00, -0.01, 0.00, 24.81, 9.86, -33.16, -0.00, -0.00, 0.00
-195.00, -90.00, 107.00, 0.15, 0.23, 0.25, 14.13, 3.44, 47.31, 36.67, -47.91, 0.00, 0.10, 0.01, 22.97, 10.12, -33.17, -0.00, -0.01, -0.00, 24.67, 9.99, -33.20, -0.00, -0.01, -0.00
241.00, 255.00, 255.00, 0.18, 0.21, 0.05, 14.25, 3.37, 35.50, 27.62, -70.08, 0.00, 0.10, 0.01, 25.55, 9.60, -33.17, -0.00, -0.00, -0.00, 24.74, 9.83, -33.18, -0.00, -0.00, 0.00
255.00, 255.00, 110.00, 0.03, -0.12, 0.15, 13.88, 3.26, 39.24, 27.90, -66.87, -0.00, 0.10, 0.01, 24.52, 9.32, -34.61, 0.00, -0.01, -0.00, 24.70, 9.64, -33.24, 0.00, -0.01, -0.00
76.00, -216.00, 248.00, 0.09, 0.01, -0.10, 14.00, 3.23, 27.36, 43.31, -45.48, 0.00, 0.10, 0.01, 22.67, 10.03, -32.03, -0.00, -0.00, -0.00, 24.56, 9.81, -33.25, -0.01, -0.00, -0.00
178.00, 36.00, -192.00, -0.08, -0.14, 0.21, 14.13, 3.29, 47.06, 36.98, -49.91, -0.00, 0.10, 0.01, 25.29, 9.87, -32.78, 0.00, -0.00, 0.00, 24.62, 9.82, -33.22, 0.00, -0.00, 0.00
-161.00, -237.00, 255.00, 0.15, -0.16, -0.17, 14.25, 3.28, 38.19, 42.46, -46.00, -0.00, 0.10, 0.01, 24.46, 9.92, -32.61, 0.00, -0.00, -0.00, 24.62, 9.86, -33.20, 0.00, -0.00, -0.00
247.00, -255.00, -255.00, -0.23, 0.19, -0.08, 14.25, 3.24, 37.30, 50.96, -41.01, 0.00, 0.10, 0.01, 24.70, 10.72, -33.16, -0.00, 0.00, -0.00, 24.62, 10.18, -33.18, -0.00, 0.00, -0.00
-255.00, 255.00, -163.00, -0.09, 0.05, 0.00, 14.13, 3.31, 73.08, 24.96, -64.31, -0.00, 0.10, 0.01, 26.81, 9.85, -34.54, 0.00, -0.01, -0.00, 24.77, 10.03, -33.16, 0.00, -0.01, -0.00
-175.00, 112.00, 0.00, 0.04, 0.08, -0.09, 14.00, 3.45, 58.13, 28.35, -56.50, 0.00, 0.10, 0.01, 24.20, 9.42, -34.62, -0.00, -0.00, -0.00, 24.70, 9.81, -33.23, -0.00, -0.01, -0.00
91.00, 156.00, -170.00, 0.12, -0.09, -0.07, 14.13, 3.51, 53.48, 31.37, -58.56, 0.00, 0.10, 0.01, 24.27, 10.38, -35.68, -0.00, -0.01, -0.00, 24.61, 10.04, -33.30, -0.00, -0.01, -0.00
206.00, -168.00, -139.00, 0.22, 0.20, -0.08, 14.25, 3.50, 37.93, 45.57, -42.53, 0.00, 0.10, 0.01, 26.14, 9.70, -33.29, -0.00, -0.00, -0.00, 24.72, 9.89, -33.26, -0.00, -0.00, -0.00
255.00, 255.00, -154.00, 0.12, 0.14, 0.21, 14.00, 3.54, 49.12, 28.53, -65.80, 0.00, 0.10, 0.01, 25.48, 8.85, -34.25, -0.01, -0.00, 0.00, 24.77, 9.49, -33.28, -0.00, -0.00, 0.00
205.00, 227.00, 255.00, 0.03, 0.25, 0.05, 14.00, 3.61, 35.59, 26.82, -70.05, 0.00, 0.10, 0.01, 26.01, 9.22, -33.29, -0.00, -0.00, 0.00, 24.87, 9.37, -33.25, -0.00, -0.00, 0.00
71.00, 255.00, 105.00, 0.17, 0.02, -0.12, 14.13, 3.72, 46.55, 24.26, -67.19, -0.00, 0.10, 0.01, 23.41, 10.23, -33.67, 0.00, -0.00, 0.00, 24.74, 9.72, -33.29, 0.00, -0.00, 0.00
248.00, 52.00, -199.00, -0.21, -0.05, -0.04, 14.13, 3.77, 45.24, 37.71, -52.78, 0.00, 0.10, 0.01, 26.53, 9.20, -33.25, -0.00, -0.00, -0.00, 24.88, 9.49, -33.24, 0.00, -0.00, -0.00
-255.00, -101.00, -85.00, 0.08, 0.11, -0.18, 14.13, 3.87, 60.87, 39.59, -46.99, 0.00, 0.10, 0.01, 25.00, 11.40, -34.85, -0.00, -0.00, -0.00, 24.84, 10.22, -33.24, -0.00, -0.00, -0.00
143.00, 182.00, -251.00, 0.07, -0.19, 0.07, 14.25, 3.96, 57.28, 30.94, -59.60, 0.00, 0.10, 0.01, 25.30, 9.58, -32.76, -0.00, -0.00, -0.00, 24.89, 9.97, -33.22, -0.00, -0.00, -0.00
127.00, -255.00, 127.00, -0.23, -0.13, -0.06, 14.00, 3.96, 26.44, 49.50, -40.79, 0.00, 0.10, 0.01, 26.91, 10.36, -33.58, -0.00, -0.00, -0.00, 25.03, 10.09, -33.16, -0.00, -0.00, -0.00
-255.00, -202.00, -113.00, 0.19, -0.05, -0.02, 13.75, 3.92, 57.13, 44.74, -42.06, 0.00, 0.10, 0.01, 23.46, 10.90, -34.54, -0.00, -0.00, -0.00, 24.87, 10.42, -33.23, -0.00, -0.00, -0.00
255.00, -98.00, -50.00, 0.07, 0.06, -0.08, 14.25, 3.83, 33.08, 42.28, -45.44, 0.00, 0.10, 0.01, 26.75, 8.21, -32.60, -0.00, 0.00, -0.00, 25.04, 9.56, -33.19, 0.00, 0.00, -0.00
130.00, 116.00, -144.00, 0.10, 0.18, -0.14, 14.00, 3.72, 50.23, 33.25, -55.85, 0.00, 0.10, 0.01, 24.91, 10.71, -34.34, -0.00, -0.00, 0.00, 25.00, 10.00, -33.20, -0.00, -0.00, 0.00
174.00, 255.00, -220.00, -0.22, 0.10, 0.05, 14.00, 3.58, 56.18, 28.76, -63.74, 0.00, 0.10, 0.01, 25.95, 9.78, -33.19, -0.00, -0.00, -0.00, 25.07, 9.90, -33.17, -0.00, 0.00, -0.00
-255.00, 179.00, 105.00, 0.19, -0.01, 0.13, 14.13, 3.48, 60.61, 26.43, -63.68, 0.00, 0.10, 0.01, 24.57, 11.23, -34.91, -0.00, -0.00, -0.00, 24.98, 10.42, -33.21, -0.00, -0.00, -0.00
255.00, -34.00, 219.00, -0.21, -0.09, 0.00, 14.13, 3.55, 23.36, 39.52, -55.25, 0.00, 0.10, 0.01, 23.36, 10.14, -33.90, -0.00, -0.00, -0.00, 24.84, 10.34, -33.28, -0.00, -0.00, -0.00
-255.00, -167.00, 0.00, -0.11, 0.18, -0.03, 14.13, 3.74, 53.90, 40.41, -43.73, -0.00, 0.10, 0.01, 24.47, 9.95, -33.29, 0.00, -0.01, -0.00, 24.82, 10.20, -33.29, 0.00, -0.01, -0.00
-186.00, 255.00, -69.00, -0.05, -0.04, 0.12, 14.38, 3.77, 69.86, 22.79, -64.69, -0.00, 0.10, 0.01, 25.84, 10.24, -32.67, 0.00, -0.01, 0.00, 24.90, 10.20, -33.25, 0.00, -0.01, 0.00
-101.00, -85.00, 197.00, -0.08, -0.18, -0.23, 14.38, 3.80, 39.93, 38.25, -49.69, 0.00, 0.11, 0.01, 23.87, 10.91, -33.36, -0.00, 0.00, -0.00, 24.81, 10.48, -33.26, -0.00, 0.00, -0.00
-145.00, -253.00, -255.00, 0.14, 0.23, -0.24, 14.13, 3.86, 56.39, 49.04, -38.03, -0.00, 0.10, 0.01, 24.78, 9.47, -34.27, 0.00, -0.00, -0.00, 24.80, 10.10, -33.31, 0.00, -0.00, -0.00
215.00, 255.00, -255.00, -0.22, 0.20, -0.02, 14.13, 3.81, 55.86, 29.42, -65.62, -0.00, 0.11, 0.01, 25.72, 9.54, -32.86, 0.00, 0.00, 0.00, 24.88, 9.88, -33.28, 0.00, 0.00, 0.00
-255.00, 255.00, -51.00, 0.17, -0.15, -0.02, 14.00, 3.83, 71.02, 22.20, -66.71, 0.00, 0.10, 0.01, 23.54, 10.79, -32.81, -0.00, -0.00, -0.00, 24.78, 10.24, -33.29, -0.01, -0.00, -0.00
244.00, -226.00, -51.00, 0.14, 0.20, 0.03, 14.13, 3.77, 29.39, 49.34, -41.30, -0.00, 0.10, 0.01, 26.39, 9.48, -33.84, 0.00, -0.01, -0.00, 24.90, 9.93, -33.27, 0.00, -0.01, -0.00
219.00, 255.00, 69.00, -0.15, -0.08, 0.23, 14.13, 3.67, 42.27, 26.47, -67.64, -0.00, 0.10, 0.01, 25.46, 9.77, -33.56, 0.00, -0.00, 0.00, 24.94, 9.86, -33.26, 0.00, -0.00, 0.00
-232.00, -149.00, 255.00, 0.10, 0.13, -0.18, 14.13, 3.60, 42.88, 38.23, -51.20, 0.00, 0.10, 0.01, 24.27, 9.14, -33.81, -0.00, -0.01, 0.00, 24.88, 9.60, -33.31, -0.00, -0.01, -0.00
178.00, 214.00, -255.00, 0.19, -0.21, -0.07, 14.25, 3.49, 55.17, 31.19, -61.14, -0.00, 0.10, 0.01, 25.43, 9.85, -33.78, 0.00, -0.01, -0.00, 24.91, 9.69, -33.31, 0.00, -0.00, -0.00
255.00, -255.00, -139.00, 0.23, -0.17, -0.09, 14.25, 3.45, 33.95, 50.15, -40.78, 0.00, 0.10, 0.01, 26.75, 9.79, -33.61, -0.00, -0.00, -0.00, 25.04, 9.70, -33.26, 0.00, -0.00, -0.00
255.00, -255.00, -170.00, 0.03, -0.18, 0.03, 13.88, 3.35, 35.36, 50.44, -41.01, 0.00, 0.10, 0.01, 26.46, 10.39, -33.50, -0.00, -0.01, -0.00, 25.14, 9.94, -33.21, -0.00, -0.01, -0.00
74.00, -255.00, 74.00, -0.15, 0.17, -0.23, 14.13, 3.38, 32.52, 46.73, -40.84, -0.00, 0.10, 0.01, 23.89, 11.15, -33.28, 0.00, -0.01, -0.00, 25.03, 10.41, -33.22, -0.00, -0.01, -0.00
-243.00, 255.00, -255.00, 0.22, 0.19, -0.02, 14.00, 3.34, 74.26, 26.60, -62.85, 0.00, 0.10, 0.01, 25.21, 10.20, -33.04, -0.00, -0.00, -0.00, 25.05, 10.33, -33.21, -0.00, -0.00, -0.00
255.00, 255.00, -55.00, 0.07, 0.15, 0.25, 14.00, 3.25, 45.31, 29.16, -65.36, -0.00, 0.09, 0.01, 25.09, 9.75, -35.44, 0.00, -0.01, -0.00, 25.01, 10.11, -33.29, 0.00, -0.01, -0.00
147.00, 248.00, 255.00, -0.10, 0.17, -0.09, 13.88, 3.25, 40.32, 26.32, -69.53, -0.00, 0.10, 0.01, 25.78, 9.21, -35.26, -0.00, -0.01, -0.00, 25.03, 9.76, -33.34, 0.00, -0.01, -0.00
-191.00, 255.00, -177.00, 0.18, -0.08, -0.22, 14.00, 3.25, 68.04, 25.17, -63.99, -0.00, 0.10, 0.01, 24.69, 9.14, -35.55, 0.00, -0.00, -0.00, 24.97, 9.53, -33.42, 0.00, -0.00, -0.00
255.00, -162.00, -255.00, 0.18, 0.08, -0.08, 14.13, 3.25, 41.23, 45.95, -44.15, 0.00, 0.10, 0.01, 26.64, 9.14, -33.31, -0.00, 0.00, 0.00, 25.10, 9.36, -33.38, -0.00, 0.00, 0.00
255.00, 162.00, -162.00, 0.25, 0.16, -0.03, 14.25, 3.26, 46.08, 33.38, -58.54, -0.00, 0.10, 0.01, 24.94, 9.86, -34.39, 0.00, -0.00, -0.00, 25.06, 9.55, -33.40, 0.00, -0.00, -0.00
255.00, 255.00, -76.00, -0.04, 0.19, -0.08, 14.38, 3.43, 47.41, 28.65, -64.63, -0.00, 0.10, 0.01, 26.62, 9.54, -33.58, 0.00, -0.00, -0.00, 25.18, 9.52, -33.36, 0.00, 0.00, -0.00
-91.00, 255.00, -156.00, -0.18, -0.13, -0.18, 14.00, 3.47, 67.70, 25.45, -63.17, 0.00, 0.10, 0.01, 27.54, 9.86, -34.30, -0.01, -0.00, -0.00, 25.34, 9.62, -33.30, -0.00, -0.00, -0.00
-255.00, -219.00, -255.00, -0.17, 0.12, 0.17, 14.00, 3.50, 61.21, 45.85, -41.54, 0.00, 0.10, 0.01, 24.73, 10.66, -33.45, -0.00, -0.00, -0.00, 25.28, 10.02, -33.30, -0.00, -0.00, -0.00
-255.00, 206.00, 255.00, -0.10, -0.20, 0.21, 14.13, 3.52, 56.27, 23.59, -68.46, -0.00, 0.10, 0.01, 24.71, 9.58, -33.32, 0.00, -0.00, -0.00, 25.24, 9.87, -33.33, 0.00, -0.00, -0.00
-181.00, -255.00, 255.00, 0.23, -0.20, -0.02, 14.13, 3.52, 36.14, 44.55, -46.55, -0.00, 0.10, 0.01, 22.95, 10.43, -33.76, 0.00, -0.00, -0.00, 25.04, 10.11, -33.39, 0.00, -0.00, -0.00
255.00, -255.00, -53.00, 0.06, 0.25, -0.11, 14.00, 3.63, 27.29, 50.20, -41.52, 0.00, 0.10, 0.01, 24.63, 9.49, -34.48, -0.00, -0.01, 0.00, 24.99, 9.89, -33.45, -0.00, -0.01, 0.00
120.00, 255.00, -190.00, 0.09, 0.19, 0.18, 14.25, 3.71, 58.01, 26.91, -65.07, 0.00, 0.11, 0.01, 25.63, 9.59, -34.38, -0.00, 0.00, -0.00, 25.03, 9.77, -33.46, -0.00, 0.00, -0.00
162.00, 255.00, 255.00, -0.07, -0.07, -0.12, 14.25, 3.73, 38.34, 24.33, -73.05, 0.00, 0.10, 0.01, 26.18, 9.01, -33.75, -0.00, -0.01, 0.00, 25.12, 9.46, -33.45, -0.00, -0.01, 0.00
-133.00, -133.00, -198.00, 0.11, -0.02, -0.18, 14.13, 3.85, 56.84, 40.34, -41.82, 0.00, 0.10, 0.01, 24.14, 7.87, -33.38, -0.00, -0.00, -0.00, 25.06, 8.88, -33.50, -0.00, -0.00, -0.00
182.00, -50.00, -251.00, 0.06, 0.23, -0.13, 14.13, 3.87, 46.13, 42.33, -46.96, -0.00, 0.10, 0.01, 25.61, 9.21, -33.70, 0.00, -0.00, -0.00, 25.09, 9.00, -33.48, 0.00, -0.00, -0.00
115.00, 255.00, -204.00, -0.13, -0.06, -0.17, 14.25, 3.86, 58.49, 27.14, -65.08, -0.00, 0.10, 0.01, 24.63, 10.12, -33.47, 0.00, -0.00, -0.00, 25.04, 9.43, -33.47, 0.00, -0.00, -0.00
-205.00, -115.00, -243.00, 0.15, 0.17, -0.04, 14.13, 3.94, 64.15, 42.75, -44.48, 0.01, 0.10, 0.01, 24.49, 10.79, -34.33, -0.01, -0.00, 0.00, 24.97, 9.95, -33.48, -0.01, -0.00, 0.00
223.00, 240.00, -83.00, -0.14, -0.04, 0.12, 14.00, 3.95, 49.02, 28.18, -64.97, 0.01, 0.10, 0.01, 26.84, 10.46, -32.11, -0.01, -0.00, 0.00, 25.13, 10.12, -33.37, -0.00, -0.00, 0.00
-212.00, -82.00, 191.00, 0.22, -0.20, -0.11, 14.25, 3.97, 46.74, 37.46, -51.45, 0.00, 0.10, 0.01, 24.37, 11.14, -33.61, -0.00, -0.00, 0.00, 25.05, 10.51, -33.38, -0.00, -0.00, 0.00
255.00, -255.00, -179.00, 0.01, -0.24, 0.23, 14.13, 3.95, 32.34, 53.65, -39.61, -0.00, 0.10, 0.01, 26.73, 9.21, -34.36, 0.00, -0.00, 0.00, 25.18, 9.99, -33.38, 0.00, -0.00, 0.00
32.00, -255.00, 255.00, 0.25, 0.00, -0.20, 14.25, 3.93, 25.05, 47.92, -45.29, 0.00, 0.10, 0.01, 25.45, 10.15, -34.12, -0.00, -0.00, -0.00, 25.18, 10.05, -33.39, -0.00, -0.00, -0.00
255.00, 0.00, -255.00, 0.16, 0.18, -0.04, 14.50, 3.95, 44.74, 42.05, -50.98, 0.00, 0.10, 0.01, 26.43, 9.44, -33.93, -0.00, -0.01, 0.00, 25.27, 9.80, -33.38, 0.00, -0.01, 0.00
231.00, 248.00, -82.00, -0.03, -0.01, 0.01, 13.88, 3.99, 47.19, 27.55, -67.13, 0.00, 0.10, 0.01, 25.24, 10.11, -33.19, -0.00, -0.00, 0.00, 25.27, 9.92, -33.37, -0.00, -0.00, 0.00
-66.00, -32.00, 32.00, -0.02, -0.13, -0.24, 14.00, 4.11, 47.73, 35.44, -47.34, -0.00, 0.10, 0.01, 24.49, 9.92, -32.98, -0.00, -0.00, 0.00, 25.22, 9.93, -33.38, -0.00, -0.00, 0.00
-48.00, -197.00, -255.00, 0.15, -0.19, 0.21, 14.13, 4.11, 55.09, 48.00, -38.57, 0.00, 0.10, 0.01, 26.37, 9.25, -34.24, -0.00, -0.00, -0.00, 25.29, 9.66, -33.38, -0.00, -0.00, -0.00
217.00, -250.00, 255.00, -0.04, -0.05, -0.16, 14.00, 4.01, 17.16, 49.28, -47.05, 0.00, 0.10, 0.01, 29.05, 8.29, -33.65, -0.00, -0.01, -0.00, 25.59, 9.08, -33.29, 0.00, -0.01, 0.00
-81.00, -97.00, -229.00, 0.04, -0.23, -0.13, 14.25, 3.88, 57.41, 41.74, -43.07, 0.01, 0.10, 0.01, 24.85, 10.01, -33.48, -0.01, -0.01, -0.00, 25.52, 9.44, -33.30, -0.01, -0.01, -0.00
83.00, -255.00, -204.00, 0.05, 0.11, 0.11, 14.00, 3.77, 41.70, 50.35, -36.99, 0.00, 0.10, 0.01, 24.62, 9.87, -33.36, -0.00, -0.01, -0.00, 25.44, 9.62, -33.32, -0.00, -0.01, -0.00
101.00, 185.00, 185.00, -0.24, -0.11, -0.04, 14.00, 3.68, 40.13, 28.71, -63.08, -0.00, 0.10, 0.01, 24.08, 11.43, -32.33, -0.00, -0.00, -0.00, 25.33, 10.32, -33.29, -0.00, -0.00, -0.00
-255.00, -188.00, -87.00, 0.06, -0.02, -0.24, 14.13, 3.59, 56.77, 42.62, -42.30, -0.00, 0.10, 0.01, 25.08, 10.81, -33.19, 0.00, -0.01, -0.00, 25.31, 10.51, -33.28, 0.00, -0.01, -0.00
121.00, -53.00, -255.00, 0.05, 0.12, 0.20, 14.25, 3.55, 49.74, 42.21, -45.78, 0.00, 0.10, 0.01, 25.96, 10.84, -33.07, -0.00, -0.00, -0.00, 25.36, 10.62, -33.25, -0.00, -0.00, -0.00
106.00, 205.00, 255.00, -0.10, 0.25, -0.17, 14.13, 3.54, 39.54, 26.31, -67.00, -0.01, 0.10, 0.01, 25.38, 9.20, -33.45, 0.00, -0.01, -0.00, 25.37, 10.09, -33.28, 0.00, -0.01, -0.00
-180.00, 255.00, -254.00, 0.13, 0.10, -0.02, 14.00, 3.54, 73.14, 25.72, -63.91, 0.00, 0.10, 0.01, 24.55, 9.63, -33.69, -0.00, -0.00, -0.00, 25.30, 9.93, -33.33, -0.00, -0.00, -0.00
216.00, 180.00, -53.00, 0.23, -0.13, -0.20, 14.13, 3.49, 44.34, 30.46, -60.90, 0.00, 0.11, 0.01, 24.79, 9.68, -34.84, -0.00, 0.00, -0.00, 25.23, 9.84, -33.39, -0.00, 0.00, -0.00
255.00, -218.00, -255.00, 0.03, -0.05, -0.10, 13.75, 3.54, 38.15, 50.00, -42.87, 0.01, 0.11, 0.01, 26.32, 8.94, -34.72, -0.01, 0.00, -0.00, 25.30, 9.49, -33.41, -0.00, 0.00, -0.00
72.00, -106.00, -180.00, -0.13, -0.24, -0.19, 14.13, 3.49, 46.10, 40.70, -43.20, -0.00, 0.11, 0.01, 24.37, 8.98, -33.06, 0.00, 0.00, -0.00, 25.24, 9.31, -33.44, 0.00, 0.00, -0.00
-218.00, -255.00, -255.00, 0.20, -0.20, 0.21, 14.25, 3.47, 58.64, 47.35, -40.82, 0.00, 0.10, 0.01, 25.10, 10.43, -34.48, -0.00, -0.00, -0.00, 25.20, 9.74, -33.44, -0.00, -0.00, -0.00
255.00, -255.00, 255.00, 0.22, -0.06, 0.01, 14.13, 3.42, 18.66, 47.94, -47.78, 0.00, 0.11, 0.01, 25.32, 9.41, -33.55, -0.00, 0.00, 0.00, 25.20, 9.62, -33.45, -0.00, 0.00, 0.00
255.00, -126.00, 35.00, 0.04, -0.19, 0.01, 14.13, 3.39, 28.21, 43.53, -46.55, -0.00, 0.10, 0.01, 23.09, 10.39, -33.33, 0.00, -0.01, -0.00, 25.04, 9.94, -33.49, -0.00, -0.01, -0.00
92.00, -255.00, 35.00, 0.14, 0.08, 0.23, 13.88, 3.48, 31.60, 47.53, -39.77, 0.00, 0.10, 0.01, 23.03, 11.07, -33.11, -0.00, -0.00, -0.00, 24.87, 10.39, -33.50, -0.00, -0.00, -0.00
229.00, 155.00, 255.00, 0.21, -0.11, -0.08, 14.00, 3.48, 31.70, 29.67, -64.25, 0.00, 0.10, 0.01, 24.83, 8.52, -32.78, -0.00, 0.00, -0.00, 24.90, 9.69, -33.52, -0.00, 0.00, -0.00
255.00, -195.00, -155.00, -0.09, -0.24, 0.00, 14.13, 3.46, 35.68, 48.23, -43.34, 0.00, 0.11, 0.01, 26.29, 10.25, -34.19, -0.00, 0.00, -0.00, 24.99, 9.88, -33.48, -0.00, 0.00, -0.00
-170.00, -255.00, 0.00, -0.06, -0.02, 0.02, 14.13, 3.40, 46.78, 44.81, -39.71, 0.00, 0.10, 0.01, 24.57, 10.73, -32.77, -0.00, -0.00, 0.00, 24.96, 10.20, -33.46, -0.00, -0.00, 0.00
-126.00, -55.00, 55.00, -0.04, -0.10, 0.20, 14.38, 3.42, 48.73, 35.50, -48.49, -0.00, 0.10, 0.01, 24.60, 9.73, -34.19, 0.00, 0.00, -0.00, 24.92, 10.03, -33.50, 0.00, 0.00, -0.00
-92.00, -185.00, 255.00, -0.13, 0.05, 0.13, 14.00, 3.41, 34.60, 41.70, -49.52, 0.00, 0.11, 0.01, 23.07, 10.42, -35.03, -0.00, 0.00, 0.00, 24.74, 10.21, -33.58, -0.01, 0.00, 0.00
-221.00, 109.00, 221.00, 0.19, 0.22, -0.02, 13.63, 3.38, 52.29, 28.90, -62.80, -0.00, 0.10, 0.01, 24.56, 10.49, -35.91, 0.00, 0.00, -0.00, 24.68, 10.32, -33.64, 0.00, 0.00, -0.00
255.00, 255.00, -55.00, -0.04, 0.23, 0.12, 14.00, 3.55, 46.36, 28.02, -66.08, 0.01, 0.11, 0.01, 26.40, 9.41, -33.98, -0.01, 0.00, -0.00, 24.81, 9.95, -33.62, -0.01, 0.00, -0.00
-89.00, 255.00, 205.00, -0.24, 0.00, 0.10, 14.13, 3.56, 52.72, 22.26, -70.64, 0.00, 0.10, 0.01, 25.62, 9.05, -35.62, -0.00, -0.01, 0.00, 24.84, 9.60, -33.67, -0.00, -0.01, 0.00
-255.00, 0.00, 180.00, 0.12, -0.07, 0.19, 14.13, 3.63, 53.86, 32.42, -55.16, -0.00, 0.10, 0.01, 26.08, 10.36, -33.49, 0.00, -0.01, 0.00, 24.93, 9.87, -33.61, 0.00, -0.01, 0.00
202.00, -135.00, 255.00, 0.11, 0.01, -0.23, 14.38, 3.60, 21.73, 41.38, -51.13, 0.00, 0.10, 0.01, 24.38, 8.34, -33.46, -0.00, -0.00, -0.00, 24.91, 9.30, -33.65, -0.00, -0.00, -0.00
191.00, 34.00, -255.00, 0.01, 0.15, 0.08, 13.88, 3.66, 48.99, 37.81, -50.79, -0.00, 0.10, 0.01, 25.64, 8.91, -33.12, 0.00, -0.01, -0.00, 24.97, 9.14, -33.62, 0.00, -0.01, -0.00
34.00, 232.00, 149.00, -0.20, 0.12, 0.25, 14.13, 3.68, 45.88, 24.58, -65.80, -0.00, 0.10, 0.01, 23.34, 9.99, -33.28, 0.00, -0.00, -0.00, 24.84, 9.48, -33.64, -0.00, -0.00, -0.00
-255.00, 200.00, 255.00, -0.12, 0.11, 0.23, 14.00, 3.74, 56.68, 23.93, -69.01, -0.00, 0.10, 0.01, 24.41, 10.71, -32.38, 0.00, -0.00, -0.00, 24.82, 9.95, -33.59, 0.00, -0.00, -0.00
-198.00, 186.00, 255.00, 0.21, -0.04, 0.17, 14.00, 3.72, 54.55, 24.29, -67.23, -0.00, 0.10, 0.01, 25.77, 9.87, -32.79, 0.00, -0.00, 0.00, 24.91, 9.90, -33.54, 0.00, -0.00, 0.00
255.00, -86.00, 248.00, -0.15, -0.10, -0.06, 14.38, 3.83, 21.00, 42.17, -54.00, 0.01, 0.10, 0.01, 26.86, 9.64, -33.18, -0.01, -0.00, -0.00, 25.07, 9.77, -33.48, -0.01, -0.00, -0.00
-226.00, -171.00, -116.00, -0.17, -0.20, 0.09, 14.38, 3.88, 57.13, 42.91, -42.08, -0.00, 0.11, 0.01, 24.01, 10.45, -33.82, 0.00, 0.00, -0.00, 24.97, 10.05, -33.50, 0.00, 0.00, -0.00
-242.00, -255.00, 156.00, 0.04, -0.23, -0.01, 14.00, 3.95, 44.42, 45.32, -43.95, 0.01, 0.09, 0.01, 25.07, 10.22, -34.26, -0.01, -0.01, 0.00, 24.96, 10.11, -33.52, -0.01, -0.01, 0.00
82.00, -255.00, -32.00, 0.02, 0.18, 0.05, 14.13, 3.96, 34.19, 50.01, -36.26, -0.00, 0.10, 0.01, 24.95, 10.67, -32.65, 0.00, 0.00, 0.00, 24.97, 10.32, -33.48, 0.00, 0.00, 0.00
49.00, 248.00, 98.00, -0.13, -0.07, 0.20, 14.50, 4.09, 49.65, 23.37, -67.96, 0.00, 0.10, 0.01, 24.99, 10.84, -32.80, -0.00, -0.00, -0.00, 24.98, 10.52, -33.45, -0.00, -0.00, -0.00
-197.00, -124.00, 255.00, 0.14, 0.16, -0.03, 13.88, 4.07, 40.76, 37.30, -50.47, -0.00, 0.10, 0.01, 23.88, 8.38, -32.16, 0.00, -0.01, -0.00, 24.94, 9.73, -33.48, 0.00, -0.01, -0.00
208.00, 227.00, -65.00, -0.11, -0.08, -0.04, 14.13, 4.06, 48.64, 27.49, -64.43, 0.00, 0.11, 0.01, 26.85, 10.02, -32.09, -0.00, 0.00, -0.00, 25.10, 9.81, -33.38, -0.00, 0.00, -0.00
-176.00, -138.00, -81.00, 0.25, -0.05, -0.10, 14.25, 4.07, 56.36, 40.69, -42.41, -0.00, 0.10, 0.01, 25.74, 9.45, -33.83, 0.00, -0.01, -0.00, 25.15, 9.67, -33.38, 0.00, -0.01, -0.00
255.00, -96.00, -164.00, -0.21, -0.13, 0.23, 14.00, 3.99, 37.43, 46.35, -46.30, -0.00, 0.10, 0.01, 26.92, 10.36, -34.17, 0.00, -0.00, -0.00, 25.26, 9.91, -33.33, 0.01, -0.00, -0.00
-255.00, -201.00, 255.00, -0.22, -0.21, 0.13, 14.38, 3.94, 41.54, 42.18, -49.15, 0.00, 0.10, 0.01, 24.01, 9.97, -33.28, -0.00, -0.00, -0.00, 25.16, 9.95, -33.37, -0.00, -0.00, -0.00
-255.00, -255.00, 202.00, 0.18, -0.10, -0.23, 14.25, 3.91, 42.24, 45.38, -45.47, 0.01, 0.10, 0.01, 24.16, 10.53, -33.90, -0.01, -0.00, -0.00, 25.07, 10.18, -33.40, -0.01, -0.00, -0.00
249.00, -168.00, -255.00, -0.09, -0.17, 0.07, 14.25, 3.92, 39.33, 50.45, -42.97, -0.00, 0.11, 0.01, 27.06, 9.55, -34.03, 0.00, 0.00, 0.00, 25.22, 9.92, -33.36, 0.00, 0.00, 0.00
-155.00, -241.00, 128.00, -0.16, -0.21, 0.15, 14.00, 3.85, 41.20, 45.63, -41.98, -0.00, 0.11, 0.01, 24.83, 10.77, -33.78, 0.00, 0.00, -0.00, 25.17, 10.25, -33.37, 0.00, 0.00, -0.00
-235.00, -255.00, 225.00, -0.24, 0.04, -0.02, 14.00, 3.88, 40.89, 44.48, -45.79, 0.01, 0.10, 0.01, 24.84, 9.49, -33.69, -0.01, -0.00, -0.00, 25.15, 9.96, -33.40, -0.01, -0.00, -0.00
-255.00, 83.00, -50.00, -0.13, 0.18, -0.07, 14.00, 3.86, 65.65, 30.75, -55.60, 0.00, 0.10, 0.01, 24.21, 11.87, -33.51, -0.00, -0.00, -0.00, 25.05, 10.70, -33.38, -0.00, -0.01, -0.00
-205.00, 251.00, -130.00, 0.21, -0.05, 0.21, 14.25, 3.81, 71.19, 23.93, -64.53, 0.00, 0.10, 0.01, 23.38, 10.89, -32.59, -0.00, -0.00, 0.00, 24.93, 10.79, -33.40, -0.00, -0.00, -0.00
255.00, -101.00, 255.00, 0.25, 0.21, -0.08, 14.00, 3.75, 20.27, 41.51, -52.78, -0.01, 0.10, 0.01, 26.06, 8.48, -32.55, 0.01, -0.01, 0.00, 25.05, 9.90, -33.38, 0.01, -0.01, 0.00
255.00, 255.00, -147.00, 0.12, 0.19, 0.00, 14.00, 3.73, 50.03, 29.25, -64.44, -0.01, 0.10, 0.01, 26.55, 10.06, -31.62, 0.01, 0.00, -0.00, 25.19, 9.93, -33.29, 0.01, 0.00, -0.00
198.00, 255.00, 0.00, -0.21, 0.03, 0.02, 14.25, 3.67, 46.62, 26.66, -65.58, -0.01, 0.10, 0.01, 25.94, 10.02, -32.93, 0.01, -0.01, -0.00, 25.26, 9.95, -33.25, 0.01, -0.01, -0.00
-255.00, 70.00, 52.00, 0.14, 0.02, -0.20, 14.13, 3.69, 60.11, 29.51, -54.49, -0.01, 0.10, 0.01, 24.50, 10.35, -32.20, 0.01, -0.00, -0.00, 25.21, 10.11, -33.24, 0.01, -0.00, -0.00
221.00, 52.00, -255.00, 0.13, -0.19, 0.21, 13.88, 3.60, 47.21, 38.06, -50.99, 0.00, 0.10, 0.01, 24.80, 9.47, -32.02, -0.00, -0.01, -0.00, 25.21, 9.87, -33.23, -0.00, -0.01, -0.00
214.00, -255.00, 255.00, -0.13, -0.12, 0.11, 14.13, 3.63, 18.74, 48.63, -46.96, -0.00, 0.10, 0.01, 26.02, 9.65, -33.53, 0.00, -0.00, -0.00, 25.27, 9.78, -33.22, 0.00, -0.00, -0.00
-213.00, -202.00, 190.00, 0.07, 0.01, 0.03, 14.13, 3.57, 43.13, 42.82, -46.24, 0.00, 0.10, 0.01, 24.57, 11.32, -33.42, -0.00, -0.00, -0.00, 25.19, 10.37, -33.21, -0.00, -0.00, -0.00
137.00, 34.00, 71.00, 0.19, 0.11, -0.11, 14.13, 3.60, 39.58, 35.36, -52.57, 0.01, 0.10, 0.01, 25.93, 10.87, -33.48, -0.01, -0.01, 0.00, 25.24, 10.55, -33.18, -0.01, -0.01, 0.00
255.00, 191.00, -191.00, 0.12, 0.02, -0.04, 14.13, 3.58, 47.52, 32.11, -60.27, 0.00, 0.10, 0.01, 24.49, 9.54, -32.89, -0.00, -0.01, -0.00, 25.19, 10.18, -33.22, -0.01, -0.01, -0.00
203.00, 53.00, -88.00, -0.02, 0.05, -0.08, 14.00, 3.50, 42.09, 36.44, -51.70, 0.01, 0.10, 0.01, 24.77, 10.62, -32.92, -0.01, -0.00, -0.00, 25.16, 10.35, -33.21, -0.01, -0.00, -0.00
-54.00, 107.00, -154.00, 0.22, 0.16, 0.15, 13.88, 3.53, 58.40, 32.93, -53.45, 0.00, 0.10, 0.01, 24.31, 11.63, -33.60, -0.00, -0.00, -0.00, 25.07, 10.85, -33.22, -0.00, -0.00, -0.00
255.00, 246.00, 237.00, 0.18, 0.21, -0.03, 14.13, 3.47, 34.29, 28.11, -70.11, 0.00, 0.10, 0.01, 25.23, 9.83, -33.20, -0.00, -0.00, -0.00, 25.09, 10.46, -33.23, -0.00, -0.00, -0.00
255.00, 255.00, -73.00, -0.16, -0.19, 0.07, 14.00, 3.40, 47.11, 28.65, -63.88, -0.00, 0.10, 0.01, 26.38, 9.52, -32.93, 0.00, -0.01, 0.00, 25.20, 10.09, -33.20, 0.00, -0.01, 0.00
-251.00, -255.00, 142.00, -0.13, 0.14, 0.19, 14.13, 3.45, 44.30, 44.86, -43.54, 0.00, 0.10, 0.01, 23.53, 11.69, -33.01, -0.00, -0.00, 0.00, 25.06, 10.71, -33.21, -0.00, -0.00, 0.00
-220.00, 231.00, 255.00, 0.20, 0.07, -0.08, 14.13, 3.44, 55.76, 24.12, -68.93, 0.00, 0.10, 0.01, 25.38, 10.35, -33.48, -0.00, -0.01, -0.00, 25.08, 10.57, -33.21, -0.00, -0.01, -0.00
255.00, 141.00, -156.00, -0.07, -0.22, -0.03, 14.25, 3.46, 45.94, 33.27, -55.83, 0.00, 0.10, 0.01, 25.77, 9.14, -32.03, -0.00, -0.00, -0.00, 25.17, 10.02, -33.19, -0.00, -0.00, -0.00
-140.00, -255.00, -73.00, 0.00, 0.09, -0.18, 14.13, 3.39, 46.62, 46.08, -39.43, 0.00, 0.10, 0.01, 23.18, 11.27, -33.46, -0.00, -0.01, -0.00, 24.99, 10.52, -33.22, -0.00, -0.01, -0.00
0.00, 172.00, -255.00, -0.21, 0.11, 0.01, 14.13, 3.39, 61.33, 29.79, -56.65, -0.00, 0.10, 0.01, 24.99, 8.83, -33.55, 0.00, -0.00, -0.00, 25.00, 9.88, -33.26, 0.00, -0.00, -0.00
-255.00, 199.00, 35.00, -0.22, -0.18, -0.04, 14.25, 3.39, 62.73, 25.27, -61.77, -0.00, 0.10, 0.01, 24.15, 10.20, -33.49, 0.00, -0.00, 0.00, 24.92, 10.02, -33.29, 0.00, -0.00, 0.00
-255.00, -255.00, -92.00, 0.07, 0.09, -0.11, 14.00, 3.37, 54.05, 44.75, -40.62, 0.00, 0.11, 0.01, 24.86, 10.76, -33.07, -0.00, 0.00, -0.00, 24.92, 10.30, -33.27, -0.00, 0.00, -0.00
143.00, 173.00, -200.00, -0.18, -0.01, 0.04, 14.13, 3.38, 53.10, 31.22, -57.76, 0.00, 0.11, 0.01, 25.17, 9.58, -33.92, -0.00, 0.00, 0.00, 24.93, 10.03, -33.29, -0.00, 0.00, 0.00
-255.00, -35.00, 92.00, -0.19, 0.05, -0.18, 14.00, 3.40, 53.87, 33.95, -51.24, -0.00, 0.10, 0.01, 24.64, 10.10, -33.77, 0.00, -0.00, -0.00, 24.90, 10.06, -33.31, 0.00, -0.00, -0.00
-255.00, 109.00, -255.00, 0.14, -0.14, -0.08, 14.25, 3.38, 71.81, 30.33, -54.95, -0.00, 0.10, 0.01, 26.10, 8.90, -33.25, 0.00, -0.00, 0.00, 25.00, 9.60, -33.29, 0.00, -0.00, 0.00
233.00, -233.00, -158.00, 0.05, 0.25, 0.24, 14.13, 3.36, 35.79, 48.44, -39.87, 0.00, 0.10, 0.01, 25.75, 9.85, -32.02, -0.00, -0.00, -0.00, 25.08, 9.68, -33.23, -0.00, -0.00, -0.00
110.00, 255.00, 255.00, -0.09, 0.24, -0.04, 14.25, 3.35, 41.44, 25.27, -68.85, -0.00, 0.10, 0.01, 25.41, 9.22, -33.63, 0.00, -0.01, -0.00, 25.10, 9.50, -33.24, 0.00, -0.01, -0.00
-173.00, 255.00, -93.00, 0.07, 0.09, -0.12, 14.00, 3.37, 64.98, 24.33, -63.24, 0.00, 0.10, 0.01, 24.13, 9.59, -34.06, -0.00, 0.00, -0.00, 25.00, 9.55, -33.29, -0.00, 0.00, -0.00
143.00, 173.00, -212.00, 0.16, -0.07, 0.25, 14.13, 3.31, 54.57, 31.38, -56.85, 0.00, 0.10, 0.01, 26.44, 9.49, -33.26, -0.00, -0.00, 0.00, 25.11, 9.51, -33.25, -0.00, -0.00, 0.00
255.00, -145.00, 255.00, 0.18, -0.10, -0.10, 14.00, 3.27, 23.66, 42.17, -50.28, -0.00, 0.10, 0.01, 25.44, 8.98, -32.46, 0.00, -0.00, -0.00, 25.16, 9.30, -33.23, 0.00, -0.00, -0.00
255.00, -190.00, -190.00, 0.25, 0.02, -0.15, 14.13, 3.25, 37.83, 46.78, -42.87, 0.00, 0.10, 0.01, 26.03, 9.78, -33.02, -0.00, -0.00, -0.00, 25.22, 9.47, -33.19, -0.00, -0.00, -0.00
255.00, 56.00, -248.00, -0.13, -0.17, 0.18, 13.75, 3.26, 46.78, 38.09, -52.09, 0.00, 0.10, 0.01, 26.01, 9.68, -32.93, -0.00, -0.00, -0.00, 25.28, 9.54, -33.15, -0.00, -0.00, -0.00
-227.00, -255.00, 255.00, -0.24, -0.13, -0.23, 13.88, 3.24, 39.70, 43.09, -46.64, 0.00, 0.10, 0.01, 23.49, 10.45, -32.87, -0.00, -0.01, -0.00, 25.14, 9.90, -33.17, -0.00, -0.01, -0.00
-255.00, -228.00, -255.00, 0.08, -0.15, -0.09, 14.00, 3.23, 60.27, 44.81, -41.07, 0.00, 0.10, 0.01, 25.74, 10.53, -32.37, -0.00, -0.00, -0.00, 25.19, 10.13, -33.12, -0.00, -0.00, -0.00
163.00, -249.00, -178.00, -0.05, 0.25, -0.11, 14.38, 3.25, 38.59, 48.61, -39.24, 0.00, 0.10, 0.01, 24.63, 10.95, -32.42, -0.00, -0.00, -0.00, 25.16, 10.44, -33.10, -0.00, -0.00, -0.00
-113.00, 255.00, -204.00, 0.07, 0.18, -0.03, 14.13, 3.27, 68.11, 26.48, -61.12, 0.00, 0.10, 0.01, 27.07, 9.64, -33.35, -0.00, -0.00, -0.00, 25.30, 10.11, -33.06, -0.00, -0.00, -0.00
146.00, 255.00, -76.00, -0.11, 0.21, 0.09, 14.38, 3.24, 50.56, 27.68, -63.05, -0.00, 0.10, 0.01, 24.89, 9.84, -34.67, 0.00, -0.00, -0.00, 25.24, 10.02, -33.13, 0.00, -0.00, -0.00
-204.00, 255.00, 177.00, 0.20, -0.03, -0.18, 14.38, 3.27, 57.45, 23.34, -66.46, -0.00, 0.10, 0.01, 25.16, 9.51, -33.59, 0.00, -0.00, -0.00, 25.23, 9.83, -33.15, 0.00, -0.00, -0.00
255.00, -76.00, -255.00, -0.16, -0.23, 0.25, 14.38, 3.26, 43.00, 43.12, -46.27, 0.00, 0.10, 0.01, 25.97, 9.63, -32.46, -0.00, -0.01, -0.00, 25.30, 9.74, -33.12, -0.00, -0.01, -0.00
-255.00, -255.00, 255.00, 0.08, -0.03, 0.02, 14.00, 3.24, 41.65, 43.06, -47.33, 0.00, 0.10, 0.01, 24.27, 10.65, -33.11, -0.00, -0.01, -0.00, 25.21, 10.10, -33.13, -0.00, -0.01, -0.00
163.00, -76.00, 56.00, -0.01, 0.09, -0.14, 14.25, 3.28, 35.74, 38.47, -46.74, 0.00, 0.10, 0.01, 24.91, 9.35, -32.51, -0.00, -0.00, 0.00, 25.20, 9.82, -33.13, -0.01, -0.00, 0.00
-36.00, 176.00, -237.00, -0.24, 0.20, 0.24, 14.25, 3.31, 62.57, 30.56, -57.47, 0.00, 0.10, 0.01, 25.64, 10.16, -34.47, -0.00, 0.00, -0.00, 25.21, 9.95, -33.15, -0.00, 0.00, -0.00
-255.00, 255.00, 255.00, -0.05, 0.20, -0.06, 14.13, 3.25, 56.09, 23.21, -69.35, 0.00, 0.10, 0.01, 24.30, 9.59, -33.54, -0.00, -0.00, -0.00, 25.13, 9.83, -33.19, -0.00, -0.00, -0.00
-113.00, 255.00, -130.00, -0.06, 0.16, 0.15, 14.13, 3.17, 65.77, 25.55, -61.15, 0.01, 0.10, 0.01, 27.88, 9.18, -33.87, -0.01, -0.00, -0.00, 25.34, 9.54, -33.14, -0.00, -0.00, -0.00
-133.00, 255.00, 251.00, -0.14, 0.14, -0.07, 14.50, 3.17, 52.70, 23.71, -67.35, 0.00, 0.10, 0.01, 26.11, 8.80, -33.99, -0.00, -0.00, -0.00, 25.39, 9.25, -33.15, 0.00, -0.00, -0.00
-242.00, 242.00, -149.00, -0.01, -0.16, 0.05, 14.00, 3.16, 69.95, 25.80, -62.31, 0.00, 0.10, 0.01, 26.74, 9.62, -34.52, -0.00, -0.00, -0.00, 25.46, 9.38, -33.14, 0.00, 0.00, -0.00
-36.00, -255.00, 116.00, -0.05, -0.07, -0.19, 14.38, 3.19, 36.74, 45.16, -41.83, 0.00, 0.10, 0.01, 23.76, 11.50, -33.14, -0.00, -0.00, -0.00, 25.31, 10.20, -33.14, -0.00, -0.00, -0.00
-115.00, -149.00, -255.00, -0.14, -0.21, -0.12, 14.50, 3.25, 56.58, 42.62, -42.53, 0.00, 0.10, 0.01, 25.70, 10.33, -33.15, -0.00, -0.00, -0.00, 25.33, 10.24, -33.12, 0.00, -0.00, 0.00
-238.00, -255.00, -216.00, -0.08, -0.05, -0.18, 14.25, 3.27, 57.47, 46.13, -41.20, -0.00, 0.10, 0.01, 25.33, 10.99, -33.87, 0.00, -0.00, 0.00, 25.31, 10.53, -33.13, 0.00, -0.00, 0.00
-162.00, -113.00, -255.00, 0.12, 0.13, 0.07, 14.13, 3.35, 60.14, 40.02, -44.46, 0.00, 0.10, 0.01, 25.68, 9.18, -33.61, -0.00, -0.00, -0.00, 25.34, 10.01, -33.16, -0.00, -0.00, -0.00
212.00, 224.00, 144.00, -0.09, 0.05, -0.17, 14.00, 3.38, 39.27, 28.06, -66.27, 0.00, 0.09, 0.01, 25.01, 9.63, -34.93, -0.00, -0.01, 0.00, 25.28, 9.87, -33.23, -0.00, -0.01, 0.00
-173.00, 110.00, -255.00, 0.12, 0.17, -0.02, 14.25, 3.47, 69.07, 31.79, -54.72, -0.00, 0.10, 0.01, 26.15, 9.88, -33.96, 0.00, -0.00, -0.00, 25.33, 9.87, -33.22, 0.00, -0.00, -0.00
208.00, 255.00, -54.00, -0.19, -0.22, -0.16, 13.88, 3.56, 48.73, 26.91, -65.83, -0.00, 0.10, 0.01, 26.43, 9.33, -34.35, 0.00, -0.00, -0.00, 25.40, 9.65, -33.23, 0.00, -0.00, 0.00
-255.00, -255.00, -245.00, -0.16, 0.24, -0.21, 14.25, 3.62, 60.60, 47.50, -40.98, -0.00, 0.10, 0.01, 24.81, 10.24, -34.65, 0.00, -0.00, -0.00, 25.31, 9.88, -33.28, 0.00, -0.00, -0.00
-243.00, 255.00, -255.00, -0.03, 0.02, 0.02, 13.88, 3.63, 78.49, 24.86, -65.96, 0.00, 0.10, 0.01, 25.77, 9.62, -34.15, -0.00, -0.01, 0.00, 25.33, 9.78, -33.30, -0.00, -0.01, 0.00
-70.00, 52.00, 52.00, -0.19, 0.13, 0.05, 13.75, 3.78, 49.63, 30.72, -53.90, 0.00, 0.10, 0.01, 23.98, 9.35, -34.71, -0.00, -0.00, -0.00, 25.20, 9.64, -33.38, -0.01, -0.00, -0.00
-255.00, 208.00, 101.00, 0.03, -0.06, 0.23, 14.00, 3.89, 64.97, 21.70, -66.59, 0.01, 0.10, 0.01, 25.16, 9.51, -33.37, -0.01, 0.00, 0.00, 25.20, 9.59, -33.39, -0.01, 0.00, 0.00
67.00, -114.00, 255.00, 0.06, 0.20, 0.16, 14.25, 4.00, 28.88, 40.06, -50.38, -0.00, 0.10, 0.01, 26.79, 9.10, -33.03, 0.00, -0.00, 0.00, 25.33, 9.38, -33.34, 0.00, -0.00, 0.00
112.00, 255.00, 230.00, 0.08, 0.23, -0.13, 14.38, 4.06, 42.25, 23.36, -72.87, -0.00, 0.10, 0.01, 27.19, 10.23, -32.14, 0.00, -0.00, -0.00, 25.48, 9.67, -33.23, 0.00, 0.00, -0.00
138.00, 255.00, -198.00, 0.04, 0.01, -0.18, 14.13, 4.04, 58.90, 26.57, -67.03, 0.00, 0.10, 0.01, 25.87, 9.80, -34.07, -0.00, -0.00, -0.00, 25.50, 9.72, -33.24, -0.00, -0.00, -0.00
81.00, 32.00, -245.00, 0.23, 0.03, -0.23, 14.00, 4.08, 54.49, 36.96, -50.04, 0.00, 0.10, 0.01, 24.75, 9.41, -33.57, -0.00, -0.00, -0.00, 25.43, 9.61, -33.27, -0.00, -0.00, -0.00
255.00, 65.00, -255.00, 0.01, -0.12, -0.20, 14.13, 4.07, 47.02, 38.47, -53.98, 0.00, 0.10, 0.01, 26.13, 8.89, -32.89, -0.00, -0.01, 0.00, 25.50, 9.33, -33.26, -0.00, -0.01, 0.00
32.00, -187.00, -255.00, 0.13, 0.00, -0.07, 13.88, 4.06, 48.39, 47.09, -38.57, 0.00, 0.10, 0.01, 24.17, 8.30, -33.49, -0.00, -0.00, -0.00, 25.40, 8.96, -33.32, -0.01, -0.00, -0.00
198.00, 0.00, -125.00, -0.03, 0.19, 0.07, 14.50, 4.09, 42.22, 38.40, -48.89, 0.00, 0.10, 0.01, 26.41, 9.11, -32.84, -0.00, -0.00, -0.00, 25.48, 9.00, -33.27, -0.00, -0.00, -0.00
-65.00, 251.00, 124.00, 0.11, -0.12, 0.11, 14.38, 4.10, 54.24, 21.41, -68.71, -0.00, 0.09, 0.01, 23.80, 10.40, -32.54, 0.00, -0.01, -0.00, 25.36, 9.55, -33.27, -0.00, -0.01, -0.00
175.00, -186.00, 175.00, 0.01, -0.23, 0.04, 14.13, 4.08, 20.99, 46.97, -45.45, 0.00, 0.11, 0.01, 25.13, 10.22, -33.36, -0.00, 0.00, -0.00, 25.33, 9.80, -33.27, -0.00, 0.00, -0.00
32.00, -255.00, 80.00, -0.10, -0.11, -0.20, 14.25, 4.09, 32.87, 47.79, -39.43, 0.00, 0.10, 0.01, 26.43, 9.21, -34.64, -0.00, -0.01, -0.00, 25.39, 9.56, -33.28, -0.00, -0.01, -0.00
-163.00, -175.00, -255.00, 0.21, -0.22, -0.22, 14.25, 4.07, 60.44, 45.19, -40.19, 0.01, 0.10, 0.01, 24.22, 8.92, -33.78, -0.01, -0.01, -0.00, 25.29, 9.34, -33.34, -0.01, -0.01, -0.00
255.00, -255.00, -255.00, 0.00, -0.09, -0.14, 14.00, 4.02, 35.57, 54.40, -40.05, 0.00, 0.10, 0.01, 27.09, 8.02, -34.88, -0.00, -0.00, -0.00, 25.41, 8.82, -33.35, -0.00, -0.00, 0.00
0.00, -153.00, -210.00, 0.18, -0.17, -0.19, 14.38, 4.05, 50.35, 43.73, -39.42, 0.00, 0.10, 0.01, 24.94, 8.08, -33.09, -0.00, -0.01, -0.00, 25.39, 8.54, -33.37, -0.00, -0.01, -0.00
245.00, -237.00, -252.00, -0.14, 0.21, 0.06, 14.38, 4.04, 37.28, 53.10, -40.40, 0.00, 0.10, 0.01, 27.86, 7.80, -34.88, -0.00, 0.00, -0.00, 25.55, 8.23, -33.35, -0.00, 0.00, 0.00
-209.00, 255.00, 111.00, -0.08, 0.04, -0.18, 13.88, 4.03, 62.04, 21.03, -69.48, 0.00, 0.11, 0.01, 22.66, 11.21, -32.07, -0.00, 0.00, 0.00, 25.33, 9.38, -33.32, -0.00, 0.00, -0.00
-139.00, 81.00, -245.00, 0.09, 0.05, 0.06, 14.38, 4.07, 71.08, 31.57, -52.27, 0.00, 0.10, 0.01, 26.24, 8.85, -32.53, -0.00, -0.00, -0.00, 25.42, 9.17, -33.28, -0.00, -0.00, -0.00
151.00, 96.00, 111.00, -0.08, 0.19, -0.09, 14.13, 4.10, 35.72, 30.50, -56.97, -0.00, 0.10, 0.01, 23.95, 9.15, -31.93, 0.00, -0.00, -0.00, 25.33, 9.18, -33.28, -0.00, -0.00, -0.00
-137.00, 251.00, -150.00, 0.16, 0.19, 0.23, 14.25, 4.09, 70.65, 23.59, -64.81, 0.01, 0.10, 0.01, 23.21, 10.87, -32.14, -0.01, -0.01, -0.00, 25.18, 9.84, -33.27, -0.01, -0.01, -0.00
227.00, 251.00, 255.00, -0.13, -0.20, 0.08, 14.13, 4.03, 32.87, 25.61, -74.57, 0.00, 0.10, 0.01, 25.96, 9.82, -31.68, -0.00, 0.00, -0.00, 25.26, 9.82, -33.20, -0.00, 0.00, -0.00
-199.00, -255.00, 139.00, 0.08, 0.07, 0.25, 14.38, 4.03, 43.17, 45.56, -41.96, 0.00, 0.10, 0.01, 25.63, 9.67, -33.88, -0.00, -0.00, -0.00, 25.28, 9.76, -33.21, -0.00, -0.00, 0.00
139.00, 126.00, 255.00, -0.21, -0.17, 0.15, 14.00, 4.06, 32.90, 30.33, -65.71, 0.00, 0.10, 0.01, 25.66, 10.55, -33.73, -0.00, -0.00, -0.00, 25.29, 10.05, -33.20, -0.00, -0.00, -0.00
-255.00, -236.00, 218.00, 0.02, 0.21, 0.19, 14.38, 4.04, 42.77, 44.37, -46.78, -0.00, 0.10, 0.01, 24.97, 10.06, -34.00, 0.00, -0.00, -0.00, 25.25, 10.06, -33.23, 0.00, -0.00, -0.00
49.00, 255.00, 253.00, -0.06, 0.23, -0.16, 14.00, 4.03, 43.12, 22.41, -72.58, 0.01, 0.10, 0.01, 25.28, 9.99, -31.63, -0.01, -0.01, -0.00, 25.28, 10.03, -33.19, -0.01, -0.01, -0.00
-111.00, 255.00, -229.00, 0.23, -0.04, 0.17, 14.13, 4.04, 73.24, 24.70, -65.24, 0.00, 0.10, 0.01, 24.12, 10.32, -32.83, -0.00, -0.01, -0.00, 25.19, 10.16, -33.20, -0.00, -0.01, -0.00
255.00, -81.00, 237.00, 0.25, -0.05, 0.07, 14.00, 4.04, 18.90, 42.49, -54.71, 0.01, 0.10, 0.01, 26.35, 9.60, -33.74, -0.01, -0.00, -0.00, 25.28, 9.93, -33.20, -0.01, -0.00, -0.00
255.00, -96.00, 125.00, -0.15, 0.06, 0.01, 14.25, 4.06, 22.14, 43.22, -50.51, 0.00, 0.10, 0.01, 25.26, 9.48, -34.39, -0.00, -0.01, -0.00, 25.25, 9.76, -33.24, -0.00, -0.01, -0.00
-218.00, 111.00, 32.00, 0.16, -0.24, 0.25, 14.38, 4.10, 63.10, 26.18, -57.21, -0.00, 0.10, 0.01, 24.80, 9.49, -32.31, 0.00, -0.01, -0.00, 25.24, 9.66, -33.23, -0.00, -0.01, -0.00
226.00, -255.00, 255.00, -0.05, 0.21, -0.09, 14.00, 4.05, 14.00, 50.34, -46.99, 0.00, 0.10, 0.01, 27.07, 8.63, -33.66, -0.00, -0.00, -0.00, 25.38, 9.25, -33.21, -0.00, 0.00, -0.00
-96.00, 255.00, -152.00, 0.04, -0.14, 0.08, 14.38, 4.04, 69.42, 23.81, -66.09, -0.00, 0.10, 0.01, 24.59, 10.63, -33.85, 0.00, -0.00, -0.00, 25.29, 9.78, -33.22, 0.00, -0.00, -0.00
81.00, -209.00, 139.00, 0.23, -0.24, -0.14, 14.25, 4.08, 30.40, 46.78, -43.39, 0.00, 0.10, 0.01, 28.03, 10.31, -34.67, -0.00, 0.00, -0.00, 25.47, 9.95, -33.16, 0.00, 0.00, -0.00
255.00, -255.00, -208.00, 0.10, 0.23, 0.20, 14.25, 4.05, 33.53, 54.08, -39.56, -0.00, 0.10, 0.01, 27.27, 8.36, -34.70, 0.00, -0.00, -0.00, 25.59, 9.32, -33.18, 0.00, -0.00, -0.00
164.00, 255.00, 255.00, -0.06, 0.09, 0.10, 14.13, 4.02, 37.58, 24.32, -74.01, 0.01, 0.10, 0.01, 26.65, 10.03, -31.97, -0.01, -0.00, -0.00, 25.69, 9.57, -33.10, -0.01, -0.00, -0.00
-112.00, 153.00, 165.00, -0.08, -0.12, 0.18, 14.13, 4.06, 51.08, 26.00, -64.78, 0.00, 0.10, 0.01, 23.64, 10.71, -35.02, -0.00, -0.00, -0.00, 25.47, 10.04, -33.18, -0.01, -0.00, -0.00
-138.00, -187.00, 244.00, 0.01, 0.05, 0.24, 14.13, 4.08, 36.77, 41.29, -47.22, -0.00, 0.10, 0.01, 25.33, 8.35, -33.23, 0.00, -0.00, -0.00, 25.47, 9.40, -33.21, 0.00, -0.00, -0.00
32.00, 96.00, 255.00, -0.16, 0.13, 0.04, 14.38, 4.08, 37.62, 30.31, -62.06, 0.00, 0.10, 0.01, 25.23, 10.67, -32.88, -0.00, -0.00, -0.00, 25.45, 9.89, -33.18, -0.00, -0.00, -0.00
-227.00, 198.00, 80.00, -0.22, -0.09, 0.03, 14.50, 4.08, 62.57, 23.72, -65.62, -0.00, 0.11, 0.01, 22.55, 11.57, -33.13, 0.00, 0.00, -0.00, 25.21, 10.56, -33.22, 0.00, 0.00, -0.00
-255.00, -151.00, 65.00, -0.15, 0.16, 0.12, 14.25, 4.08, 50.94, 40.21, -45.10, 0.00, 0.11, 0.01, 22.94, 10.26, -33.40, -0.00, 0.00, 0.00, 25.03, 10.48, -33.29, -0.01, 0.00, -0.00
-218.00, 227.00, 187.00, 0.02, 0.21, -0.06, 14.25, 4.06, 59.87, 21.94, -70.01, 0.00, 0.10, 0.01, 24.34, 11.15, -32.16, -0.00, -0.01, -0.00, 24.99, 10.74, -33.26, -0.00, -0.01, -0.00
49.00, 255.00, -111.00, -0.03, -0.12, -0.17, 14.25, 4.07, 59.98, 24.86, -64.95, 0.00, 0.10, 0.01, 25.39, 10.88, -32.43, -0.00, -0.00, 0.00, 25.03, 10.79, -33.22, -0.00, -0.00, 0.00
-65.00, -187.00, -236.00, 0.17, 0.11, -0.20, 14.13, 4.08, 53.81, 47.57, -38.19, -0.00, 0.11, 0.01, 24.61, 10.08, -33.31, 0.00, 0.00, -0.00, 25.01, 10.53, -33.25, 0.00, 0.00, -0.00
235.00, 175.00, -255.00, 0.22, -0.07, -0.05, 13.88, 4.05, 51.86, 32.26, -59.60, 0.01, 0.10, 0.01, 25.23, 8.64, -31.33, -0.01, -0.00, -0.00, 25.08, 9.82, -33.22, -0.01, -0.00, -0.00
255.00, -125.00, -96.00, 0.20, -0.21, -0.18, 14.13, 4.05, 32.37, 45.43, -43.88, -0.00, 0.10, 0.01, 26.37, 8.58, -32.96, -0.00, -0.00, -0.00, 25.19, 9.33, -33.20, 0.00, -0.00, -0.00
